20120102,52.17,52.17,52.17,52.17
20120103,53.18,53.44,52.06,52.28
20120104,52.13,52.55,51.81,52.39
20120105,52.39,52.39,51.44,51.95
20120106,52.02,52.3,51.49,51.85
20120109,52.1,52.25,51.67,51.79
20120110,52.06,52.41,51.83,51.95
20120111,51.85,52.04,51.64,51.8
20120112,52.0,52.0,51.37,51.47
20120113,51.16,51.75,51.12,51.48
20120116,51.48,51.48,51.48,51.48
20120117,51.84,52.12,51.49,51.68
20120118,51.61,52.23,51.56,52.09
20120119,52.13,52.37,51.78,52.37
20120120,52.04,52.16,51.31,51.55
20120123,51.53,51.8,51.46,51.58
20120124,51.05,51.72,51.01,51.44
20120125,51.32,51.83,51.02,51.76
20120126,52.06,52.45,51.93,52.15
20120127,52.05,52.55,51.93,52.28
20120130,51.75,52.37,51.26,52.13
20120131,52.44,52.58,51.94,52.42
20120201,52.74,53.62,52.67,53.54
20120202,53.67,53.71,52.49,52.8
20120203,53.45,53.8,53.29,53.5
20120206,53.35,53.68,53.25,53.5
20120207,53.47,53.82,52.99,53.44
20120208,53.6,53.6,53.1,53.19
20120209,53.39,53.76,53.01,53.76
20120210,52.25,53.27,51.15,53.04
20120213,53.28,53.57,51.93,52.42
20120214,52.32,52.42,51.96,52.33
20120215,52.37,52.83,52.01,52.41
20120216,52.41,53.33,52.19,52.75
20120217,52.92,53.14,52.75,52.82
20120220,52.82,52.82,52.82,52.82
20120221,53.03,53.07,52.3,52.5
20120222,52.31,52.77,51.65,52.45
20120223,52.5,53.26,52.09,53.16
20120224,53.06,53.6,52.76,53.23
20120227,53.04,53.47,52.2,53.23
20120228,53.2,53.44,52.5,52.75
20120229,52.83,53.14,52.52,52.78
20120301,53.01,53.1,52.54,52.94
20120302,52.83,53.24,52.83,53.2
20120305,53.02,53.47,52.81,53.35
20120306,52.75,52.75,51.96,52.16
20120307,52.24,52.7,51.96,52.19
20120308,52.39,53.48,52.39,53.27
20120309,53.4,53.9,53.29,53.54
20120312,53.51,53.72,53.27,53.6
20120313,53.92,54.42,53.66,54.41
20120314,54.43,54.62,54.3,54.46
20120315,54.39,54.92,54.23,54.89
20120316,54.3,54.87,53.99,54.74
20120319,54.55,54.96,54.39,54.59
20120320,54.37,54.69,54.32,54.4
20120321,54.16,54.52,53.86,54.28
20120322,53.96,54.04,53.23,54.0
20120323,53.94,54.33,53.87,54.29
20120326,54.53,54.92,54.46,54.92
20120327,54.92,54.93,54.58,54.79
20120328,54.7,55.0,54.47,54.94
20120329,54.69,55.0,54.49,54.91
20120330,55.0,55.0,54.71,54.77
20120402,54.76,55.49,54.53,55.0
20120404,54.92,54.94,54.0,54.79
20120405,54.64,54.88,54.16,54.34
20120406,54.34,54.34,54.34,54.34
20120409,53.71,54.36,53.59,54.15
20120410,53.9,54.26,53.26,53.34
20120411,54.24,54.24,52.03,53.9
20120412,53.91,54.64,53.91,54.5
20120413,54.27,54.42,53.95,54.08
20120416,54.13,54.47,53.73,54.27
20120417,54.65,54.76,54.36,54.5
20120418,54.33,54.55,54.15,54.48
20120419,54.55,55.05,54.18,54.54
20120420,54.67,55.0,54.6,54.89
20120423,54.39,54.39,53.82,54.26
20120424,54.11,54.26,53.8,54.03
20120425,54.36,55.11,54.04,55.02
20120426,54.33,54.91,53.55,54.5
20120427,54.43,55.11,54.39,54.79
20120430,54.76,54.99,54.3,54.51
20120501,54.4,55.26,54.2,54.67
20120502,54.35,54.85,54.08,54.53
20120503,54.63,55.39,54.48,54.83
20120504,54.62,54.71,53.61,53.72
20120507,53.51,53.81,53.45,53.59
20120508,53.23,53.87,52.69,53.79
20120509,53.49,53.88,52.95,53.72
20120510,54.11,54.11,53.34,53.57
20120511,53.35,53.88,53.28,53.39
20120514,52.83,52.85,52.31,52.33
20120515,52.49,52.61,51.61,51.74
20120516,52.0,52.15,51.24,51.28
20120517,51.39,51.54,50.14,50.14
20120518,50.35,50.56,49.63,49.7
20120521,49.82,50.7,49.74,50.56
20120522,50.67,50.96,50.33,50.59
20120523,50.12,51.22,49.9,51.05
20120524,51.18,51.41,50.46,51.06
20120525,51.1,51.27,50.54,50.61
20120528,50.61,50.61,50.61,50.61
20120529,51.03,51.62,50.63,50.71
20120530,50.46,50.46,49.84,49.87
20120531,50.03,51.09,49.94,50.67
20120601,49.56,50.44,49.36,50.26
20120604,50.25,50.36,49.69,50.22
20120605,49.96,50.49,49.86,50.4
20120606,50.95,51.65,50.76,51.58
20120607,52.0,52.45,51.88,51.94
20120608,51.95,52.53,51.48,52.4
20120611,52.75,52.93,51.71,51.77
20120612,51.97,52.54,51.87,52.37
20120613,52.19,52.66,51.85,51.97
20120614,52.14,52.57,51.91,52.38
20120615,52.56,52.74,52.24,52.27
20120618,52.18,52.85,51.89,52.62
20120619,52.64,53.26,52.42,52.43
20120620,52.18,52.58,51.98,52.24
20120621,52.2,52.48,51.0,51.13
20120622,51.4,51.8,51.16,51.72
20120625,51.19,51.2,50.5,50.71
20120626,50.71,50.97,50.32,50.58
20120627,50.79,51.24,50.65,50.73
20120628,50.53,50.71,50.06,50.53
20120629,51.34,51.7,51.02,51.05
20120702,51.07,51.94,50.92,51.78
20120703,51.7,52.62,51.7,52.53
20120704,52.53,52.53,52.53,52.53
20120705,52.46,52.74,52.35,52.5
20120706,52.15,52.4,51.07,51.46
20120709,49.49,50.21,47.56,49.72
20120710,49.43,49.57,48.83,49.47
20120711,49.38,49.45,48.9,49.23
20120712,49.09,49.22,48.67,49.05
20120713,49.25,49.89,49.01,49.84
20120716,49.81,49.92,49.35,49.64
20120717,49.65,49.88,49.15,49.82
20120718,49.48,50.53,49.42,50.31
20120719,50.36,50.81,50.09,50.71
20120720,50.39,50.55,50.07,50.11
20120723,49.47,49.94,48.92,49.78
20120724,49.37,49.37,48.35,48.75
20120725,48.83,49.37,48.56,49.35
20120726,50.01,50.14,49.44,49.81
20120727,50.12,51.96,49.47,50.65
20120730,50.72,51.22,50.35,50.48
20120731,50.34,50.55,49.86,50.01
20120801,50.12,50.16,49.0,49.22
20120802,48.67,48.99,48.08,48.57
20120803,49.3,50.15,49.3,50.06
20120806,50.06,50.46,49.87,49.98
20120807,50.0,50.4,49.82,50.05
20120808,49.97,50.26,49.89,49.92
20120809,49.92,50.02,49.51,49.83
20120810,49.83,50.02,49.65,49.89
20120813,49.75,49.98,49.3,49.98
20120814,50.18,50.23,49.87,49.97
20120815,50.01,50.37,49.87,50.36
20120816,50.36,50.79,50.03,50.66
20120817,50.57,50.87,50.25,50.62
20120820,50.68,50.76,50.14,50.57
20120821,50.66,50.72,50.13,50.37
20120822,50.39,50.87,50.0,50.84
20120823,50.86,50.86,50.25,50.52
20120824,50.35,50.91,50.35,50.82
20120827,51.0,51.0,50.4,50.51
20120828,50.43,51.04,50.2,50.98
20120829,50.94,51.14,50.79,50.92
20120830,50.64,50.76,50.4,50.47
20120831,50.87,51.02,50.35,50.65
20120903,50.65,50.65,50.65,50.65
20120904,50.72,51.04,50.07,51.0
20120905,51.1,51.23,50.33,50.61
20120906,50.92,51.8,50.72,50.8
20120907,50.88,51.49,50.62,51.49
20120910,50.7,51.43,50.33,51.11
20120911,51.11,51.26,50.71,51.19
20120912,51.05,51.42,50.99,51.28
20120913,51.35,52.38,51.35,52.14
20120914,52.18,52.59,52.18,52.46
20120917,52.43,52.56,52.24,52.4
20120918,52.24,52.41,51.85,52.1
20120919,52.25,52.55,51.95,52.41
20120920,52.24,52.76,52.1,52.68
20120921,53.11,53.19,52.57,52.67
20120924,52.17,52.76,52.17,52.65
20120925,52.73,53.03,51.9,51.99
20120926,52.09,52.09,51.36,51.81
20120927,51.86,51.93,51.28,51.62
20120928,51.32,51.82,51.09,51.71
20121001,51.71,51.92,51.04,51.74
20121002,51.91,51.99,51.44,51.87
20121003,51.95,52.37,51.77,52.03
20121004,52.22,52.4,51.95,52.31
20121005,52.6,53.0,52.48,52.57
20121008,52.45,52.72,52.21,52.41
20121009,52.31,52.38,51.62,51.68
20121010,51.7,51.72,51.11,51.19
20121011,51.49,51.7,51.19,51.27
20121012,51.27,51.58,51.18,51.23
20121015,51.21,51.52,50.93,51.45
20121016,51.48,52.16,51.47,52.11
20121017,52.22,53.06,52.05,53.0
20121018,52.86,52.94,52.67,52.74
20121019,52.66,52.78,51.95,52.34
20121022,52.3,52.65,52.19,52.58
20121023,52.15,52.15,51.2,51.71
20121024,51.94,51.94,51.26,51.42
20121025,51.69,51.69,51.05,51.3
20121026,51.49,51.79,51.29,51.65
20121029,51.65,51.65,51.65,51.65
20121030,51.65,51.65,51.65,51.65
20121031,50.8,51.62,49.97,51.28
20121101,51.39,53.36,51.25,53.13
20121102,52.4,53.02,49.17,49.49
20121105,49.7,50.49,49.16,49.67
20121106,49.55,50.75,49.53,50.16
20121107,49.74,49.74,48.86,48.92
20121108,48.81,49.02,48.27,48.27
20121109,48.09,48.48,48.0,48.02
20121112,48.0,48.35,47.86,47.89
20121113,47.61,47.85,46.99,47.15
20121114,47.12,47.38,46.03,46.04
20121115,46.0,46.29,45.53,45.8
20121116,45.8,46.22,45.19,46.19
20121119,46.59,46.99,46.4,46.94
20121120,46.79,46.97,46.5,46.97
20121121,47.05,47.54,46.76,46.95
20121122,46.95,46.95,46.95,46.95
20121123,47.16,47.63,47.16,47.62
20121126,47.41,47.93,47.41,47.79
20121127,47.68,48.12,47.19,47.31
20121128,46.74,47.78,46.71,47.58
20121129,47.9,48.09,47.42,47.77
20121130,47.8,48.03,47.38,47.67
20121203,48.02,48.07,46.77,46.95
20121204,46.89,47.32,46.61,47.08
20121205,47.18,47.36,46.89,47.25
20121206,47.2,47.68,46.91,47.68
20121207,47.77,47.9,47.58,47.7
20121210,47.62,47.9,47.38,47.78
20121211,48.01,48.1,47.59,47.74
20121212,47.95,48.09,47.55,47.57
20121213,47.56,47.81,46.84,47.2
20121214,47.15,47.44,46.85,46.92
20121217,46.99,47.46,46.98,47.38
20121218,47.4,47.6,47.09,47.56
20121219,47.56,48.55,47.56,48.07
20121220,48.05,48.35,48.0,48.19
20121221,47.69,48.35,47.33,47.76
20121224,47.5,48.1,47.27,47.99
20121225,47.99,47.99,47.99,47.99
20121226,47.99,48.05,47.41,47.54
20121227,47.42,47.95,47.19,47.77
20121228,47.44,47.88,47.32,47.34
20121231,47.19,48.04,47.04,47.72
20130101,47.72,47.72,47.72,47.72
20130102,48.95,48.99,48.14,48.76
20130103,48.76,49.33,48.64,48.95
20130104,48.95,49.63,48.94,49.62
20130107,49.37,49.43,49.1,49.2
20130108,51.11,51.77,50.18,51.72
20130109,51.84,51.87,50.94,51.18
20130110,51.45,51.45,50.82,50.88
20130111,50.86,51.14,50.59,51.04
20130114,50.88,51.39,50.82,51.23
20130115,50.75,51.58,50.75,51.55
20130116,51.55,51.64,51.36,51.57
20130117,51.84,52.23,51.74,52.04
20130118,52.11,52.33,51.9,52.33
20130121,52.33,52.33,52.33,52.33
20130122,52.22,52.26,51.76,52.02
20130123,52.14,52.37,51.73,51.81
20130124,51.86,52.18,51.79,52.1
20130125,52.39,52.39,51.93,52.03
20130128,51.95,51.95,50.79,51.04
20130129,51.23,51.92,50.95,51.92
20130130,51.89,52.15,51.67,51.86
20130131,51.59,51.93,51.39,51.53
20130201,52.01,52.25,51.42,52.23
20130204,51.91,52.29,51.8,52.21
20130205,52.36,52.62,52.22,52.55
20130206,52.33,53.13,52.14,52.91
20130207,52.99,52.99,52.25,52.87
20130208,53.05,53.43,52.38,52.51
20130211,52.47,52.58,51.88,52.43
20130212,52.56,52.72,52.34,52.71
20130213,52.91,53.17,52.54,53.17
20130214,53.02,53.28,52.78,53.07
20130215,53.1,53.31,52.96,53.11
20130218,53.11,53.11,53.11,53.11
20130219,53.36,53.85,53.17,53.75
20130220,53.7,53.78,52.2,52.27
20130221,52.32,52.46,51.95,52.23
20130222,52.48,52.85,52.33,52.82
20130225,52.94,53.0,52.09,52.1
20130226,52.26,52.57,52.17,52.46
20130227,52.5,53.59,52.5,53.4
20130228,53.32,53.99,53.32,53.94
20130301,53.66,53.8,53.08,53.47
20130304,53.28,53.56,52.97,53.4
20130305,53.4,53.94,53.4,53.8
20130306,53.99,54.51,53.82,54.38
20130307,54.47,54.71,54.3,54.53
20130308,54.79,55.25,54.61,55.25
20130311,55.17,55.37,55.0,55.35
20130312,55.46,55.62,55.09,55.36
20130313,55.37,55.61,54.95,55.33
20130314,55.56,55.7,55.0,55.48
20130315,55.39,55.74,55.24,55.7
20130318,55.34,55.88,55.27,55.56
20130319,55.77,55.93,55.16,55.81
20130320,56.0,56.88,55.86,56.65
20130321,56.36,56.61,56.05,56.26
20130322,56.27,56.4,55.9,56.24
20130325,56.39,56.75,55.63,56.0
20130326,56.7,56.8,56.27,56.65
20130327,56.35,56.9,56.19,56.84
20130328,56.83,57.47,56.72,57.35
20130329,57.35,57.35,57.35,57.35
20130401,57.42,57.42,56.72,56.97
20130402,57.27,57.27,56.75,57.23
20130403,57.12,57.15,56.4,56.64
20130404,56.7,56.81,56.2,56.67
20130405,56.28,56.3,55.75,56.09
20130408,56.25,56.43,55.89,56.39
20130409,56.53,56.66,56.09,56.44
20130410,56.59,57.25,56.58,57.25
20130411,57.17,57.69,57.13,57.48
20130412,57.17,57.43,56.77,56.9
20130415,56.62,56.68,55.28,55.39
20130416,55.63,55.98,55.42,55.86
20130417,55.52,55.52,54.47,55.01
20130418,55.1,55.17,54.45,54.57
20130419,54.71,55.26,54.41,55.08
20130422,55.28,55.73,54.75,55.46
20130423,55.74,56.19,55.4,56.16
20130424,56.2,56.64,55.45,56.5
20130425,56.61,56.84,56.13,56.17
20130426,56.17,56.17,54.96,55.39
20130429,55.74,55.76,55.06,55.35
20130430,55.19,56.12,55.02,56.1
20130501,56.01,56.01,55.31,55.47
20130502,55.51,56.04,55.45,55.6
20130503,56.07,56.47,55.85,55.99
20130506,56.05,56.31,55.8,56.07
20130507,56.05,56.26,55.76,56.14
20130508,56.14,56.46,55.96,56.46
20130509,56.42,56.53,55.91,55.96
20130510,56.08,56.99,56.08,56.49
20130513,56.55,56.72,55.96,55.98
20130514,55.86,56.33,55.74,56.3
20130515,56.09,56.68,56.09,56.67
20130516,56.6,57.03,56.35,56.57
20130517,56.81,57.16,56.71,57.07
20130520,56.93,57.29,56.93,57.06
20130521,56.95,57.17,56.63,56.99
20130522,56.99,57.52,56.34,56.61
20130523,56.2,56.72,55.9,56.69
20130524,56.4,56.51,55.87,56.22
20130527,56.22,56.22,56.22,56.22
20130528,56.73,57.14,56.23,56.47
20130529,56.16,56.61,56.03,56.27
20130530,56.3,57.35,56.3,57.24
20130531,57.0,57.3,56.72,56.72
20130603,56.71,57.04,56.3,56.85
20130604,56.84,57.31,56.34,56.58
20130605,56.42,56.52,55.67,55.78
20130606,55.83,56.28,55.68,56.28
20130607,56.47,57.15,56.45,57.0
20130610,57.19,57.76,56.83,57.19
20130611,56.56,57.18,56.34,56.85
20130612,57.02,57.29,55.67,56.05
20130613,55.92,57.35,55.92,57.29
20130614,57.26,57.34,56.81,57.04
20130617,57.32,57.43,56.94,57.14
20130618,57.2,57.58,57.2,57.34
20130619,57.19,57.47,56.57,56.6
20130620,56.04,56.35,55.27,55.32
20130621,55.4,55.52,54.59,55.03
20130624,54.47,55.11,54.13,54.83
20130625,55.28,55.37,54.35,54.86
20130626,55.2,55.43,54.63,54.96
20130627,55.21,55.73,55.0,55.41
20130628,55.36,55.62,55.04,55.21
20130701,55.49,56.44,55.36,55.95
20130702,55.83,56.38,55.45,55.8
20130703,55.66,55.91,55.36,55.88
20130704,55.88,55.88,55.88,55.88
20130705,56.28,56.63,55.64,56.62
20130708,56.79,57.03,56.6,56.9
20130709,57.24,57.89,57.02,57.8
20130710,57.6,58.26,57.53,58.09
20130711,58.78,59.36,58.67,59.32
20130712,59.36,59.66,59.19,59.65
20130715,59.6,59.79,59.24,59.76
20130716,59.8,59.87,59.27,59.43
20130717,59.81,59.81,59.13,59.38
20130718,59.5,59.89,59.14,59.83
20130719,59.85,59.93,59.41,59.58
20130722,59.71,60.11,59.53,59.64
20130723,59.88,59.9,59.32,59.57
20130724,59.82,59.82,58.63,58.7
20130725,58.64,59.99,58.34,58.34
20130726,58.17,58.42,57.55,57.94
20130729,57.69,58.64,57.69,58.49
20130730,58.81,58.89,58.23,58.39
20130731,58.7,58.75,58.25,58.39
20130801,59.12,60.29,59.12,59.91
20130802,60.07,60.74,59.75,60.48
20130805,60.43,60.59,59.81,59.97
20130806,60.12,60.21,59.27,59.47
20130807,59.47,59.53,59.0,59.5
20130808,59.84,60.61,58.96,60.34
20130809,60.3,60.59,59.91,60.12
20130812,59.88,60.38,59.88,60.22
20130813,60.39,60.49,59.82,60.35
20130814,60.29,60.58,60.11,60.31
20130815,59.79,59.82,59.17,59.2
20130816,59.25,59.4,59.03,59.29
20130819,59.24,59.44,59.12,59.24
20130820,59.34,59.59,59.21,59.34
20130821,59.04,59.36,58.77,58.9
20130822,59.11,60.04,59.11,59.59
20130823,59.79,59.88,59.43,59.84
20130826,59.9,60.42,59.72,60.07
20130827,59.34,59.77,58.68,58.75
20130828,58.56,58.98,58.56,58.81
20130829,58.69,59.44,58.69,59.21
20130830,59.34,60.08,58.43,58.81
20130902,58.81,58.81,58.81,58.81
20130903,59.44,59.78,57.4,58.37
20130904,58.34,58.9,58.23,58.62
20130905,58.56,58.89,58.47,58.49
20130906,58.62,58.91,57.76,58.51
20130909,58.7,59.48,58.3,59.15
20130910,59.47,59.89,59.06,59.49
20130911,59.29,59.73,59.29,59.51
20130912,59.53,59.94,59.11,59.15
20130913,59.36,59.48,58.93,59.01
20130916,59.71,60.57,59.54,60.32
20130917,60.4,60.5,59.36,59.51
20130918,59.51,60.34,59.17,60.22
20130919,60.35,60.45,59.81,60.11
20130920,60.5,60.51,60.1,60.24
20130923,60.19,60.66,59.95,60.4
20130924,60.37,60.75,60.08,60.41
20130925,60.33,60.51,59.9,60.26
20130926,60.49,60.73,60.11,60.57
20130927,60.3,60.46,59.63,59.65
20130930,59.25,60.17,59.15,60.13
20131001,59.98,61.66,59.89,61.09
20131002,59.59,60.37,59.44,60.28
20131003,59.92,59.95,59.23,59.73
20131004,59.66,60.45,59.57,60.13
20131007,59.77,60.32,59.19,60.26
20131008,59.96,60.64,59.96,60.1
20131009,60.18,60.29,59.46,59.77
20131010,60.48,60.95,60.37,60.93
20131011,60.67,61.51,60.42,61.45
20131014,61.08,61.94,60.79,61.92
20131015,61.67,61.71,61.05,61.24
20131016,61.43,62.13,61.42,61.65
20131017,61.41,62.77,61.35,62.75
20131018,62.76,63.29,62.57,63.19
20131021,63.18,63.57,63.07,63.55
20131022,63.81,64.36,63.54,64.24
20131023,63.93,64.18,63.01,63.35
20131024,63.43,63.92,63.12,63.56
20131025,63.59,64.34,63.59,64.28
20131028,64.12,64.5,63.93,64.17
20131029,64.17,64.53,63.48,64.01
20131030,64.01,64.35,63.43,63.56
20131031,63.1,64.48,62.21,64.16
20131101,64.42,64.7,63.52,63.89
20131104,63.94,64.14,63.49,64.08
20131105,64.0,64.05,63.07,63.78
20131106,64.08,64.66,63.61,64.37
20131107,64.58,64.77,63.36,63.41
20131108,63.29,64.44,63.29,64.25
20131111,64.19,64.78,64.14,64.72
20131112,64.75,64.75,63.99,64.4
20131113,63.94,65.1,63.94,65.09
20131114,65.16,65.23,64.66,64.92
20131115,64.88,64.98,64.7,64.94
20131118,65.09,65.1,64.68,64.78
20131119,64.71,64.9,64.31,64.39
20131120,64.57,64.8,63.75,63.89
20131121,64.09,64.44,63.9,64.1
20131122,64.18,64.58,63.8,64.2
20131125,64.42,64.61,64.1,64.24
20131126,64.22,64.59,63.72,64.37
20131127,64.63,65.04,64.35,64.95
20131128,64.95,64.95,64.95,64.95
20131129,64.95,65.25,64.88,64.92
20131202,64.96,65.73,64.39,64.97
20131203,64.75,64.93,63.96,64.21
20131204,63.85,64.13,63.1,63.81
20131205,63.65,64.11,63.41,64.08
20131206,64.41,64.81,63.94,64.69
20131209,64.57,64.7,64.18,64.59
20131210,64.4,64.57,64.19,64.28
20131211,64.4,64.52,63.14,63.21
20131212,63.19,63.66,63.19,63.4
20131213,63.47,63.86,63.43,63.7
20131216,64.09,64.56,63.87,64.37
20131217,64.28,64.68,64.14,64.47
20131218,64.73,65.12,63.82,65.08
20131219,64.88,65.4,64.5,64.78
20131220,64.83,65.46,64.78,65.36
20131223,65.7,65.86,65.24,65.85
20131224,65.93,66.4,65.63,66.39
20131225,66.39,66.39,66.39,66.39
20131226,66.61,66.87,66.13,66.79
20131227,66.95,67.1,66.35,66.72
20131230,66.76,67.57,66.66,67.53
20131231,67.51,67.86,67.35,67.81
20140101,67.81,67.81,67.81,67.81
20140102,67.76,68.01,66.97,67.13
20140103,66.95,67.3,66.49,66.85
20140106,67.13,67.2,66.25,66.5
20140107,66.84,66.88,66.27,66.81
20140108,67.11,68.29,66.89,68.21
20140109,68.36,68.68,67.48,67.75
20140110,67.74,68.16,67.6,68.05
20140113,68.19,68.66,67.0,67.13
20140114,67.42,68.62,67.3,68.25
20140115,68.6,68.78,67.63,68.0
20140116,67.9,68.27,67.79,68.0
20140117,68.03,68.2,67.2,67.24
20140120,67.24,67.24,67.24,67.24
20140121,67.57,67.73,66.85,67.17
20140122,67.43,67.43,66.86,66.99
20140123,66.93,66.98,65.91,66.3
20140124,66.05,66.05,64.44,64.48
20140127,64.16,64.62,63.4,63.4
20140128,63.64,63.78,63.3,63.67
20140129,63.15,63.96,62.84,63.36
20140130,64.03,64.26,63.53,64.21
20140131,63.23,64.23,63.11,63.8
20140203,63.86,64.0,61.3,61.42
20140204,61.9,62.32,61.18,62.13
20140205,61.98,62.56,61.36,62.3
20140206,62.39,62.63,62.1,62.5
20140207,63.57,63.91,62.69,63.49
20140210,63.2,63.72,62.87,63.41
20140211,63.39,63.89,63.14,63.83
20140212,63.8,64.18,63.7,63.94
20140213,63.54,64.54,63.54,64.42
20140214,64.21,64.94,64.21,64.77
20140217,64.77,64.77,64.77,64.77
20140218,64.86,65.15,64.31,64.98
20140219,64.77,65.48,64.46,64.52
20140220,64.46,65.45,64.26,64.85
20140221,64.93,65.04,64.48,64.64
20140224,64.7,65.23,64.34,64.37
20140225,64.29,64.97,64.25,64.6
20140226,64.82,65.64,64.82,64.94
20140227,64.88,65.72,64.85,65.51
20140228,65.51,66.74,65.51,66.17
20140303,65.53,65.81,65.1,65.33
20140304,66.25,66.37,65.48,65.75
20140305,65.78,66.04,65.43,65.93
20140306,66.04,66.14,65.67,65.75
20140307,65.69,66.27,65.49,65.73
20140310,65.71,65.86,65.26,65.56
20140311,65.75,65.83,64.9,65.06
20140312,64.78,65.14,64.51,65.04
20140313,65.27,65.42,64.1,64.15
20140314,64.15,64.97,63.99,64.51
20140317,64.72,65.23,64.71,64.96
20140318,65.01,65.51,64.94,65.47
20140319,65.27,65.76,64.47,64.86
20140320,64.81,64.97,64.52,64.66
20140321,64.89,65.52,64.57,64.75
20140324,64.54,65.22,63.47,64.19
20140325,64.35,64.67,63.88,64.16
20140326,64.54,64.54,63.51,63.57
20140327,63.4,63.73,63.11,63.69
20140328,63.81,64.61,63.81,64.27
20140331,64.7,66.25,64.45,66.1
20140401,66.25,67.12,65.86,67.05
20140402,67.41,67.41,66.61,67.14
20140403,67.26,67.51,66.29,66.68
20140404,67.1,67.19,65.83,66.04
20140407,65.87,65.87,65.22,65.42
20140408,65.49,65.9,65.03,65.85
20140409,65.86,66.61,65.83,66.24
20140410,66.28,66.39,65.46,65.71
20140411,67.35,67.35,64.54,64.72
20140414,65.13,65.74,64.65,65.19
20140415,65.47,66.24,64.59,66.03
20140416,66.29,66.7,66.19,66.4
20140417,66.45,66.89,66.21,66.57
20140418,66.57,66.57,66.57,66.57
20140421,66.52,67.11,66.23,67.08
20140422,67.22,67.74,66.92,67.62
20140423,67.44,67.78,67.13,67.2
20140424,67.31,67.4,66.39,67.36
20140425,67.2,67.56,66.51,67.14
20140428,66.91,67.48,66.32,66.9
20140429,66.93,67.35,66.74,67.12
20140430,66.8,67.47,66.58,67.42
20140501,67.65,67.72,67.01,67.19
20140502,67.34,67.49,66.5,66.68
20140505,66.14,66.93,66.05,66.74
20140506,66.48,66.63,66.14,66.37
20140507,66.24,66.49,65.63,66.48
20140508,66.51,67.26,66.33,66.7
20140509,66.47,66.88,65.98,66.59
20140512,66.96,67.59,66.59,67.5
20140513,67.74,67.84,66.77,66.99
20140514,66.87,67.23,66.52,66.78
20140515,66.53,66.54,65.67,65.98
20140516,66.01,66.22,65.53,66.14
20140519,66.15,67.18,65.95,66.63
20140520,66.34,66.67,65.34,65.81
20140521,66.05,66.23,65.66,66.02
20140522,66.07,66.29,65.79,65.92
20140523,65.94,66.3,65.79,65.99
20140526,65.99,65.99,65.99,65.99
20140527,66.14,66.14,65.8,65.95
20140528,66.02,66.16,65.44,65.96
20140530,66.42,66.66,66.2,66.59
20140602,66.72,66.78,66.09,66.5
20140603,66.3,66.51,66.05,66.22
20140604,66.08,66.39,65.97,66.17
20140605,66.24,66.64,65.8,66.53
20140606,66.67,67.3,66.49,67.11
20140609,67.03,67.58,67.03,67.23
20140610,67.21,67.41,66.68,67.13
20140611,66.79,66.94,66.44,66.6
20140612,66.43,66.86,65.72,66.1
20140613,64.95,66.67,64.95,66.41
20140616,66.31,66.47,65.56,65.64
20140617,65.47,66.9,65.41,66.33
20140618,66.33,66.4,65.75,66.07
20140619,66.06,66.75,66.06,66.68
20140620,66.75,67.1,66.44,66.63
20140623,66.81,66.87,66.33,66.39
20140624,66.02,66.74,65.89,66.0
20140625,66.05,66.71,66.05,66.39
20140626,66.36,66.75,65.79,66.31
20140627,66.12,67.01,66.12,67.01
20140630,66.89,67.37,66.55,67.01
20140701,67.26,68.0,67.14,67.51
20140702,67.32,67.56,66.57,66.74
20140703,67.04,67.1,66.67,66.97
20140704,66.97,66.97,66.97,66.97
20140707,66.75,66.92,65.98,66.42
20140708,66.26,66.41,65.84,66.24
20140709,66.29,66.58,65.82,66.32
20140710,65.46,66.4,65.46,66.26
20140711,66.16,66.46,65.92,66.35
20140714,66.75,67.02,66.29,66.54
20140715,66.47,67.03,66.2,66.82
20140716,66.95,67.07,65.92,66.35
20140718,65.3,66.17,64.66,66.05
20140721,65.68,65.68,64.99,65.4
20140722,64.24,64.65,63.43,63.73
20140723,63.79,64.05,63.25,63.67
20140724,63.55,64.21,63.5,63.79
20140725,63.44,64.03,63.24,63.5
20140728,63.11,63.18,62.66,62.91
20140729,62.87,63.24,62.56,62.63
20140730,62.73,63.03,62.02,62.11
20140731,61.83,61.83,60.89,61.1
20140801,61.07,61.45,60.57,61.13
20140804,61.3,61.5,60.67,61.38
20140805,61.0,61.52,60.66,60.97
20140806,60.79,62.07,60.52,61.52
20140807,61.87,62.05,61.3,61.58
20140808,61.77,62.42,61.24,62.36
20140811,62.68,63.05,62.1,62.16
20140812,62.03,62.48,61.77,62.35
20140813,62.64,63.15,62.23,63.11
20140814,63.22,63.7,63.03,63.14
20140815,63.31,63.43,62.88,63.3
20140818,63.6,63.72,63.34,63.68
20140819,63.8,64.14,63.66,64.13
20140820,63.99,64.11,63.65,63.75
20140821,64.12,64.39,63.77,63.93
20140822,64.04,64.23,63.59,63.62
20140825,64.01,64.14,63.38,63.72
20140826,63.75,64.23,63.67,63.96
20140827,64.06,64.2,63.66,64.0
20140828,63.93,64.22,63.65,64.02
20140829,64.02,64.21,63.62,64.15
20140901,64.15,64.15,64.15,64.15
20140902,64.38,64.88,64.15,64.54
20140903,64.66,64.69,64.02,64.17
20140904,64.5,64.95,63.92,64.74
20140905,64.86,65.2,64.51,65.2
20140908,65.01,65.37,64.37,64.71
20140909,64.5,64.5,63.52,63.88
20140910,63.87,63.87,63.31,63.54
20140911,63.44,63.88,63.24,63.79
20140912,63.54,63.74,62.48,62.7
20140915,62.88,62.88,62.28,62.76
20140916,62.74,63.04,62.41,62.59
20140917,62.53,62.64,61.45,61.49
20140918,61.95,62.19,61.54,61.6
20140919,61.61,62.0,61.14,61.16
20140922,61.1,61.35,60.73,61.2
20140923,61.11,61.48,60.93,60.94
20140924,60.75,61.23,60.6,61.0
20140925,60.73,61.01,60.57,60.84
20140926,60.88,61.5,60.65,61.38
20140929,60.86,61.84,60.7,61.75
20140930,61.58,61.58,60.59,60.7
20141001,60.4,60.74,59.11,59.26
20141002,59.36,59.67,58.91,59.33
20141003,59.6,60.21,59.5,60.11
20141006,60.25,60.65,59.9,60.23
20141007,60.08,60.08,58.92,58.95
20141008,59.02,60.02,58.33,59.92
20141009,59.89,60.12,58.22,58.56
20141010,58.72,59.14,57.44,57.5
20141013,57.41,58.12,56.03,56.18
20141014,56.56,56.76,56.01,56.39
20141015,55.63,57.09,55.59,56.64
20141016,55.7,57.78,55.66,57.65
20141017,58.3,59.07,58.05,58.7
20141020,58.71,60.08,58.46,60.04
20141021,60.28,61.3,60.28,61.25
20141022,61.42,61.85,60.55,60.59
20141023,61.18,62.37,60.79,61.78
20141024,61.72,62.08,61.48,61.92
20141027,61.37,61.37,60.01,60.37
20141028,60.79,61.5,60.51,61.25
20141029,61.34,61.56,60.5,61.03
20141030,60.7,61.85,60.38,61.71
20141031,58.36,62.69,58.36,62.24
20141103,61.73,62.29,61.42,61.73
20141104,61.51,62.36,61.34,62.31
20141105,62.8,63.69,62.29,63.64
20141106,63.59,64.03,63.16,63.8
20141107,63.97,64.85,63.86,64.77
20141110,64.84,65.57,64.78,65.55
20141111,65.5,65.87,65.05,65.26
20141112,64.95,65.23,64.76,65.17
20141113,65.4,65.75,64.72,64.95
20141114,64.91,65.25,64.6,64.83
20141117,64.96,65.61,64.81,65.48
20141118,65.55,65.81,64.87,64.99
20141119,65.0,65.0,64.49,64.83
20141120,64.36,65.05,64.36,64.75
20141121,65.3,65.41,64.71,65.1
20141124,65.21,65.38,65.03,65.34
20141125,65.45,65.45,65.02,65.27
20141126,65.31,65.43,64.91,65.29
20141127,65.29,65.29,65.29,65.29
20141128,65.4,65.6,64.92,65.25
20141201,64.82,65.4,64.53,65.1
20141202,65.2,65.89,65.14,65.35
20141204,66.45,66.9,66.05,66.57
20141205,66.33,66.71,66.1,66.26
20141208,66.19,66.58,65.66,65.88
20141209,65.39,66.29,65.2,66.26
20141210,66.24,66.24,65.22,65.39
20141211,65.83,66.2,65.24,65.68
20141212,65.3,65.49,64.59,64.64
20141215,64.86,65.03,63.82,63.86
20141216,63.76,64.42,63.4,63.82
20141217,64.26,65.32,63.58,65.26
20141218,66.28,66.78,65.48,66.61
20141219,66.65,67.27,66.62,67.13
20141222,67.41,67.5,66.88,67.09
20141223,67.17,67.62,66.83,67.44
20141224,67.36,67.84,67.04,67.56
20141225,67.56,67.56,67.56,67.56
20141226,67.87,68.17,67.3,67.86
20141229,67.59,68.62,67.59,68.38
20141230,68.67,68.67,67.91,68.1
20141231,68.09,68.37,66.77,66.84
20150101,66.84,66.84,66.84,66.84
20150102,67.06,67.68,65.91,66.65
20150105,66.2,66.63,64.0,64.6
20150106,64.85,65.0,63.48,63.91
20150107,64.51,64.62,63.87,64.28
20150108,64.77,66.14,64.77,66.11
20150109,66.43,66.7,65.42,65.47
20150112,65.49,66.14,64.95,65.37
20150113,65.79,66.53,64.26,65.17
20150114,64.28,64.98,63.9,64.6
20150115,64.66,65.02,63.45,63.78
20150116,63.73,64.68,63.37,64.47
20150119,64.47,64.47,64.47,64.47
20150120,64.3,64.97,63.67,64.21
20150121,63.82,64.71,63.65,64.34
20150122,64.62,65.07,63.83,64.71
20150123,64.74,64.91,63.75,63.76
20150126,63.58,64.01,63.18,63.77
20150127,63.06,63.55,62.6,62.89
20150128,63.17,63.58,61.89,62.09
20150129,62.39,63.23,61.39,63.0
20150130,62.58,63.35,62.18,63.11
20150202,63.23,63.85,62.71,63.54
20150203,63.66,64.42,63.31,63.47
20150204,63.26,63.97,62.95,63.22
20150205,63.74,64.34,63.4,63.81
20150206,64.09,66.6,63.76,64.33
20150209,64.04,64.43,63.18,63.65
20150210,64.04,64.31,63.41,63.73
20150211,63.5,64.05,63.38,63.68
20150212,63.95,64.55,63.67,64.07
20150213,64.11,64.74,63.89,64.56
20150216,64.56,64.56,64.56,64.56
20150217,64.13,65.69,64.13,65.25
20150218,64.99,65.83,64.99,65.83
20150219,65.41,66.27,65.14,65.84
20150220,65.94,66.26,65.14,66.17
20150223,65.92,66.4,65.57,66.27
20150224,66.14,66.4,65.68,66.3
20150225,66.18,66.38,65.45,65.85
20150226,65.85,66.35,65.74,66.26
20150227,66.17,66.38,65.56,65.87
20150302,66.04,66.56,65.53,66.5
20150303,66.08,66.45,65.6,65.89
20150304,65.92,66.03,64.87,65.62
20150305,65.56,65.92,64.63,65.03
20150306,64.8,65.01,63.92,64.27
20150309,64.13,64.7,63.91,64.18
20150310,63.97,64.02,63.4,63.75
20150311,63.75,63.82,62.71,63.36
20150312,63.71,64.16,63.23,63.56
20150313,63.43,63.73,62.86,63.1
20150316,63.43,64.0,63.32,63.79
20150317,63.65,63.93,62.57,63.61
20150318,63.49,64.54,63.23,63.95
20150319,63.73,64.13,63.19,63.64
20150320,63.73,63.94,63.21,63.23
20150323,63.35,63.9,63.04,63.39
20150324,63.26,63.79,63.14,63.5
20150325,63.43,63.91,62.87,62.98
20150326,62.82,63.17,62.71,62.98
20150327,63.03,63.32,62.77,63.18
20150330,63.41,63.98,63.26,63.7
20150331,63.26,63.8,63.21,63.52
20150401,63.58,63.83,62.82,63.65
20150402,63.51,63.84,62.96,63.15
20150403,63.15,63.15,63.15,63.15
20150406,62.92,63.43,62.76,63.38
20150407,63.3,63.5,62.99,63.11
20150408,63.12,63.5,62.85,63.42
20150409,63.25,63.46,62.86,63.33
20150410,63.44,63.57,63.18,63.49
20150413,63.05,63.67,63.01,63.43
20150414,63.47,63.73,63.14,63.3
20150415,63.58,63.6,62.91,63.0
20150416,63.52,63.52,62.83,63.01
20150417,62.72,62.99,61.98,62.84
20150420,63.07,63.26,62.73,62.81
20150421,63.12,63.28,62.5,62.72
20150422,62.68,63.47,62.44,62.88
20150423,62.7,63.11,62.7,62.94
20150424,63.15,63.44,62.64,63.29
20150427,63.38,63.59,62.55,62.79
20150428,62.72,63.05,62.45,62.78
20150429,62.64,62.74,62.12,62.55
20150430,62.15,62.79,62.0,62.07
20150504,64.34,64.98,63.9,63.96
20150505,63.74,64.08,62.87,63.0
20150506,63.1,63.34,62.61,63.1
20150507,63.02,63.13,62.72,63.0
20150508,63.47,63.7,62.95,63.16
20150511,62.97,63.21,62.9,63.06
20150512,62.88,63.71,62.38,63.51
20150513,63.97,64.5,63.97,64.33
20150514,64.63,65.42,64.63,65.21
20150515,65.21,65.39,64.88,65.2
20150518,65.12,65.84,64.96,65.66
20150519,65.73,66.31,65.63,66.09
20150520,66.09,66.15,65.29,65.46
20150521,65.24,65.26,64.55,64.92
20150522,64.75,65.01,64.33,64.5
20150525,64.5,64.5,64.5,64.5
20150526,64.48,64.64,63.68,63.97
20150527,64.02,64.55,63.84,64.48
20150528,64.4,64.7,64.08,64.49
20150529,64.64,64.85,63.65,63.77
20150601,64.02,64.27,63.31,63.9
20150602,63.83,64.63,63.47,63.95
20150603,64.25,64.56,63.95,64.14
20150604,63.75,64.25,63.53,63.92
20150605,63.77,64.32,63.45,64.28
20150608,64.24,64.53,63.56,63.75
20150609,63.75,64.33,63.58,64.15
20150610,64.3,64.56,64.05,64.24
20150611,64.23,64.82,64.21,64.78
20150612,64.5,64.75,64.14,64.58
20150615,64.06,64.28,63.62,64.27
20150616,64.31,65.78,64.0,64.9
20150617,64.88,65.0,64.13,64.81
20150618,64.95,65.34,64.49,65.27
20150619,65.3,65.83,65.04,65.29
20150622,65.64,65.64,65.14,65.5
20150623,65.57,65.63,64.81,65.18
20150624,65.12,65.31,64.37,64.45
20150625,64.68,65.09,64.03,64.28
20150626,64.4,64.63,64.06,64.48
20150629,64.15,64.56,63.68,63.74
20150630,64.07,64.29,63.62,63.77
20150701,64.14,64.38,63.74,63.85
20150702,64.12,64.26,63.56,63.79
20150703,63.79,63.79,63.79,63.79
20150706,63.45,63.99,63.17,63.84
20150707,63.74,64.36,63.44,64.3
20150708,63.89,64.39,63.25,63.44
20150709,63.89,64.04,63.25,63.41
20150710,63.96,64.45,63.51,63.68
20150713,63.78,64.35,63.78,64.26
20150714,64.02,64.29,63.79,63.94
20150715,63.88,64.28,63.63,63.94
20150716,64.22,64.55,64.12,64.3
20150717,64.15,64.33,63.76,63.93
20150720,63.82,64.08,63.61,63.96
20150721,63.76,64.09,62.95,63.08
20150722,62.97,63.49,62.95,63.0
20150723,63.16,63.26,62.41,62.46
20150724,62.34,62.61,61.5,61.75
20150727,60.9,61.57,60.73,61.38
20150728,61.62,62.35,61.27,62.3
20150729,64.0,67.39,63.51,66.35
20150730,66.32,67.93,66.05,67.5
20150731,67.79,68.71,67.5,67.79
20150803,67.78,68.06,66.54,67.28
20150804,67.4,68.19,67.23,67.93
20150805,68.15,69.34,68.1,68.81
20150806,68.78,69.11,68.19,68.37
20150807,68.28,68.9,67.93,68.79
20150810,69.01,70.1,68.84,69.92
20150811,69.4,69.95,68.6,69.18
20150812,68.63,69.62,67.93,68.78
20150813,68.51,69.58,68.3,69.03
20150814,69.0,69.93,68.85,69.87
20150817,69.62,70.34,69.15,70.09
20150818,69.8,70.28,69.46,69.83
20150819,69.52,69.72,68.55,69.11
20150820,68.64,69.09,68.0,68.07
20150821,67.12,68.12,67.04,67.61
20150824,64.8,67.62,64.66,66.15
20150826,66.7,66.77,65.41,66.71
20150827,67.21,67.76,66.43,67.66
20150828,67.19,67.76,66.94,67.71
20150831,67.39,67.79,67.08,67.36
20150901,66.07,66.92,65.78,65.8
20150902,66.55,66.95,65.5,66.48
20150903,66.83,67.46,66.64,67.38
20150904,66.7,67.46,66.56,67.27
20150907,67.27,67.27,67.27,67.27
20150908,67.75,68.36,67.28,68.02
20150909,68.02,68.62,67.11,67.78
20150910,67.21,67.97,66.58,66.91
20150911,66.66,67.42,66.08,67.4
20150914,67.28,67.28,66.71,66.72
20150915,67.54,68.44,67.37,68.41
20150916,68.31,69.16,67.88,69.04
20150917,69.15,69.38,68.36,68.42
20150918,67.79,68.29,67.0,67.15
20150921,67.48,68.34,67.14,67.63
20150922,66.88,67.42,66.66,66.74
20150923,66.92,67.06,65.84,66.68
20150924,66.27,66.27,65.16,65.6
20150925,65.69,65.69,64.84,65.53
20150928,65.14,65.25,64.1,64.15
20150929,64.14,65.0,63.62,64.94
20150930,65.51,66.28,65.31,65.96
20151001,65.95,67.43,65.79,67.24
20151002,66.64,68.0,66.16,67.98
20151005,68.43,69.03,68.05,68.41
20151006,68.53,68.67,67.61,67.68
20151007,68.01,68.73,67.72,68.68
20151008,68.76,69.77,68.5,69.63
20151009,69.69,70.7,69.69,70.26
20151012,70.31,70.64,69.92,70.57
20151013,70.4,70.88,69.93,70.16
20151014,70.11,70.72,69.57,69.67
20151015,69.88,70.11,68.95,69.69
20151016,69.69,69.91,69.26,69.84
20151019,69.61,70.04,69.54,69.99
20151020,69.91,70.82,69.91,70.49
20151021,70.53,70.8,69.8,69.87
20151022,70.28,71.36,70.21,71.29
20151023,71.96,72.17,71.06,71.4
20151026,71.3,71.68,71.05,71.3
20151027,71.25,71.32,69.63,70.95
20151028,71.06,71.85,70.72,71.85
20151029,70.23,72.35,70.23,72.34
20151030,71.62,75.25,71.62,73.56
20151102,74.77,75.88,73.84,75.72
20151103,75.78,75.96,74.67,74.76
20151104,74.75,74.75,73.05,73.23
20151105,73.33,73.79,72.99,73.45
20151106,73.48,73.48,72.68,73.26
20151109,73.05,73.42,71.82,72.45
20151110,72.42,73.04,71.88,73.04
20151111,73.32,73.62,72.91,73.06
20151112,72.5,72.91,70.77,70.8
20151113,70.68,71.7,70.57,71.52
20151116,71.87,72.18,71.15,72.1
20151117,72.29,72.88,71.79,71.97
20151118,72.22,73.51,71.92,73.43
20151119,73.32,73.78,72.75,73.68
20151120,73.94,74.55,73.72,74.29
20151123,74.24,74.52,73.7,73.85
20151124,73.41,74.72,73.14,74.28
20151125,74.43,75.56,74.22,74.87
20151126,74.87,74.87,74.87,74.87
20151127,74.8,75.36,74.3,75.01
20151130,75.17,75.49,74.07,74.48
20151201,74.7,75.28,74.57,74.97
20151202,74.8,75.27,73.73,73.93
20151203,74.31,74.59,72.92,73.46
20151204,73.5,74.52,73.5,74.35
20151207,74.03,74.6,73.63,74.22
20151208,73.5,74.06,73.13,73.6
20151209,73.27,74.45,72.85,73.08
20151210,73.24,73.7,72.73,73.43
20151211,72.72,73.56,72.24,72.86
20151214,72.77,73.3,72.4,72.55
20151215,73.0,73.41,72.48,73.06
20151216,73.36,73.81,72.59,73.45
20151217,73.58,73.95,72.26,72.26
20151218,72.26,72.26,71.09,71.11
20151221,71.48,71.98,71.21,71.66
20151222,71.84,72.51,71.4,72.31
20151223,72.84,73.52,72.45,73.46
20151224,73.23,73.64,72.76,73.3
20151225,73.3,73.3,73.3,73.3
20151228,72.98,73.94,72.91,73.71
20151229,74.0,74.47,73.6,74.04
20151230,73.9,74.32,73.0,73.62
20151231,73.27,73.94,72.62,72.65
20160101,72.65,72.65,72.65,72.65
20160104,72.0,72.21,71.23,72.08
20160105,71.27,71.99,71.01,71.67
20160106,70.7,71.59,70.36,71.18
20160107,70.02,70.71,69.6,69.76
20160108,69.96,70.63,69.67,69.88
20160111,69.93,70.36,69.07,69.82
20160112,70.31,70.92,69.33,69.84
20160113,70.13,70.83,68.89,68.91
20160114,69.1,69.18,68.13,68.75
20160115,67.59,68.26,67.0,68.07
20160118,68.07,68.07,68.07,68.07
20160119,68.85,68.85,67.3,68.12
20160120,67.35,68.41,66.33,67.83
20160121,67.9,68.34,66.69,66.7
20160122,67.48,68.32,67.19,68.25
20160125,67.67,67.76,66.64,66.86
20160126,67.64,70.62,67.57,70.49
20160127,70.24,71.65,69.72,70.25
20160128,70.82,71.32,70.41,70.67
20160129,70.86,72.91,70.86,72.9
20160201,72.29,72.69,71.59,72.31
20160202,71.48,71.79,70.8,71.32
20160203,71.81,73.17,70.58,73.15
20160204,73.01,73.72,71.88,72.24
20160205,72.98,74.66,70.48,71.12
20160208,70.56,73.06,69.88,73.03
20160209,72.49,75.27,72.3,74.41
20160210,74.68,75.53,73.45,74.19
20160211,73.29,75.02,73.19,74.32
20160212,74.82,75.65,73.7,75.3
20160215,75.3,75.3,75.3,75.3
20160216,76.05,76.2,73.47,73.95
20160217,74.25,74.67,73.17,73.37
20160218,73.5,73.75,72.98,73.3
20160219,73.3,73.76,71.56,72.88
20160222,73.47,73.88,72.44,72.8
20160223,72.85,73.02,72.05,72.87
20160224,72.42,74.12,72.22,73.91
20160225,74.0,74.39,73.48,74.34
20160226,74.78,74.95,73.31,73.33
20160229,73.5,74.38,72.98,73.71
20160301,74.04,75.08,73.75,74.5
20160302,74.39,74.83,73.82,74.41
20160303,74.35,75.25,73.81,75.2
20160304,75.2,76.1,75.14,76.0
20160307,75.87,76.42,75.09,75.72
20160308,75.72,76.13,75.12,75.79
20160309,75.95,76.53,75.1,75.85
20160310,76.28,76.81,75.13,75.37
20160311,75.51,76.2,75.51,75.78
20160314,75.78,76.2,74.88,75.24
20160315,74.78,76.5,74.04,76.16
20160316,75.78,76.83,75.53,76.55
20160317,76.84,77.76,76.51,77.26
20160318,76.95,77.58,76.17,76.89
20160321,76.99,77.99,76.82,77.38
20160322,77.0,78.42,76.64,78.07
20160323,77.96,78.89,76.99,78.14
20160324,77.93,77.99,76.86,77.39
20160325,77.39,77.39,77.39,77.39
20160328,77.68,78.37,77.45,78.31
20160329,77.94,78.71,77.38,78.51
20160330,78.78,79.04,78.06,78.73
20160331,78.83,79.02,78.2,78.41
20160401,78.03,79.16,77.82,79.09
20160404,79.23,79.67,78.71,78.91
20160405,78.32,78.78,77.5,77.74
20160406,77.74,78.19,76.66,77.98
20160407,77.64,77.64,76.86,77.35
20160408,77.85,77.85,77.04,77.36
20160411,77.97,78.17,77.16,77.36
20160412,77.47,77.7,76.97,77.59
20160413,78.03,78.23,76.87,78.19
20160414,78.36,78.57,77.98,78.45
20160415,78.42,79.3,78.16,79.25
20160418,79.0,79.66,78.93,79.63
20160419,79.9,80.32,79.26,79.45
20160420,79.72,79.93,79.16,79.77
20160421,79.61,80.03,78.43,78.58
20160422,78.62,79.79,78.62,79.68
20160425,78.94,79.42,78.75,79.02
20160426,79.32,80.0,78.74,79.93
20160427,79.89,80.36,79.54,79.96
20160428,79.75,80.32,79.0,79.29
20160429,77.22,77.96,75.71,76.0
20160502,75.78,77.33,75.65,76.85
20160503,76.39,76.5,75.6,75.75
20160504,75.25,75.9,75.01,75.56
20160505,75.54,76.48,75.12,76.06
20160506,76.0,76.55,75.72,76.28
20160509,76.17,76.82,75.66,76.55
20160510,76.73,77.3,76.31,77.08
20160511,77.07,77.67,76.68,76.83
20160512,77.32,77.98,77.08,77.63
20160513,77.34,77.34,76.51,76.97
20160516,77.08,77.79,76.63,77.4
20160517,77.26,77.42,75.24,75.4
20160518,75.12,76.09,74.83,75.25
20160519,74.76,75.48,74.16,74.85
20160520,75.31,75.78,74.97,75.33
20160523,75.49,75.63,74.73,74.79
20160524,75.24,76.56,75.15,76.38
20160525,76.35,76.86,76.08,76.35
20160526,76.52,76.76,75.96,76.43
20160527,76.52,77.19,76.18,77.14
20160530,77.14,77.14,77.14,77.14
20160531,77.22,77.54,76.83,77.26
20160601,76.86,77.21,76.07,77.21
20160602,77.15,77.35,76.79,77.35
20160603,77.57,77.79,76.94,77.2
20160606,77.31,78.03,76.79,77.09
20160607,77.03,77.91,77.03,77.49
20160608,77.59,78.55,77.12,77.72
20160609,77.4,77.87,77.18,77.79
20160610,77.4,78.2,77.4,78.2
20160613,77.75,78.08,76.62,76.78
20160614,76.83,76.96,76.1,76.44
20160615,76.5,76.96,76.06,76.32
20160616,76.06,76.94,75.66,76.5
20160617,76.22,76.6,75.79,76.35
20160620,77.18,77.98,77.18,77.62
20160621,77.62,78.22,77.47,77.68
20160622,77.91,78.31,77.62,78.31
20160623,79.08,80.14,79.08,80.14
20160624,77.2,78.1,76.54,76.75
20160627,75.93,75.97,74.27,74.6
20160628,74.9,75.69,74.53,75.69
20160629,76.55,76.95,75.95,76.72
20160630,76.96,79.15,76.76,79.13
20160701,78.99,79.73,78.5,79.17
20160704,79.17,79.17,79.17,79.17
20160705,78.85,79.1,77.8,78.72
20160706,78.66,78.82,77.97,78.74
20160707,78.89,79.33,78.28,78.49
20160708,79.27,79.85,79.1,79.79
20160711,80.08,80.47,79.88,80.2
20160712,80.75,81.17,80.36,80.41
20160713,80.77,80.92,80.08,80.23
20160714,80.8,81.0,79.86,80.19
20160715,80.11,80.63,79.92,79.92
20160718,79.92,80.54,79.58,79.91
20160719,79.86,80.09,79.22,79.62
20160720,79.56,80.72,79.56,80.3
20160721,80.06,80.57,79.73,79.94
20160722,79.92,80.79,79.91,80.46
20160725,80.04,80.4,79.8,79.95
20160726,79.88,80.72,79.88,80.3
20160727,80.74,80.74,79.28,79.72
20160728,79.71,79.99,78.97,79.38
20160729,79.92,81.5,77.11,78.18
20160801,78.14,78.14,77.0,77.34
20160802,77.23,77.23,75.94,76.61
20160803,76.71,76.97,76.25,76.62
20160804,76.74,77.49,76.54,76.78
20160805,77.3,77.32,76.45,76.59
20160808,76.71,77.59,75.99,76.17
20160809,76.26,76.6,75.72,75.98
20160810,76.07,76.33,75.84,76.22
20160811,76.58,76.86,75.87,76.1
20160812,75.99,76.1,75.35,75.58
20160815,75.87,76.08,75.48,75.5
20160816,75.59,75.64,75.08,75.16
20160817,75.22,75.82,75.01,75.79
20160818,75.8,76.83,75.62,76.83
20160819,76.46,76.99,76.24,76.78
20160822,76.77,77.22,76.4,77.1
20160823,77.41,77.93,77.27,77.34
20160824,77.22,77.74,77.22,77.58
20160825,77.43,78.54,77.43,78.07
20160826,78.05,79.07,78.05,78.47
20160829,78.5,79.06,78.5,78.78
20160830,78.78,79.12,78.59,78.69
20160831,78.54,78.79,77.96,77.98
20160901,78.12,78.3,77.49,77.97
20160902,78.47,79.18,78.1,79.16
20160905,79.16,79.16,79.16,79.16
20160906,79.44,79.81,78.92,79.46
20160907,79.18,80.37,79.18,80.29
20160908,80.52,80.55,79.17,79.21
20160909,78.9,78.9,77.43,77.46
20160912,77.0,78.56,77.0,78.51
20160913,78.08,78.37,77.14,77.54
20160914,77.49,77.76,77.06,77.37
20160915,77.3,77.99,77.26,77.9
20160916,77.36,78.01,77.36,77.6
20160919,77.9,78.8,77.89,78.61
20160920,79.1,79.41,78.7,78.72
20160921,78.81,78.81,77.84,78.42
20160922,79.06,79.51,78.36,79.46
20160923,79.17,79.49,78.61,78.79
20160926,78.69,78.97,78.03,78.06
20160927,77.38,78.14,77.36,77.74
20160928,78.36,78.65,77.61,78.61
20160929,78.28,78.57,77.08,77.21
20160930,77.36,77.92,76.97,77.41
20161003,77.07,77.44,76.6,77.36
20161004,77.24,77.68,76.0,76.1
20161005,76.46,76.59,75.93,76.11
20161006,76.1,76.67,75.76,76.64
20161007,76.66,76.67,75.19,75.64
20161010,76.04,76.52,75.68,75.95
20161011,75.62,75.72,74.55,75.07
20161012,75.56,75.81,75.11,75.66
20161013,74.78,76.2,74.58,75.59
20161014,75.62,76.32,75.57,76.03
20161017,76.02,76.47,76.01,76.2
20161018,76.78,77.0,75.98,76.39
20161019,76.28,76.78,76.04,76.48
20161020,76.12,76.8,75.39,75.97
20161021,76.23,77.41,75.87,77.16
20161024,78.1,78.1,76.55,77.0
20161025,77.0,77.14,76.19,77.0
20161026,76.82,77.19,76.2,76.27
20161027,76.39,76.39,75.61,76.28
20161028,75.11,75.99,72.58,73.02
20161031,72.93,73.89,70.88,71.44
20161101,71.81,71.85,70.32,70.62
20161102,70.58,71.54,70.43,70.92
20161103,70.85,71.46,70.64,70.87
20161104,71.11,71.9,70.98,71.41
20161107,72.57,74.35,72.29,74.33
20161108,74.28,76.07,74.05,75.74
20161109,74.91,76.07,74.53,75.11
20161110,75.6,75.6,71.27,71.43
20161111,71.36,72.13,70.75,71.85
20161114,72.29,73.54,72.29,73.51
20161115,73.48,73.8,72.99,73.38
20161116,73.63,73.72,72.91,73.57
20161117,73.58,74.26,72.8,73.58
20161118,73.42,73.76,72.87,73.65
20161121,73.7,74.26,73.34,74.24
20161122,74.6,75.65,73.96,75.49
20161123,75.17,76.25,75.17,76.05
20161124,76.05,76.05,76.05,76.05
20161125,76.04,76.66,75.75,76.07
20161128,76.1,77.28,76.02,76.47
20161129,76.55,76.86,74.8,75.68
20161130,76.02,76.05,73.17,73.18
20161201,73.2,74.34,72.46,74.08
20161202,74.05,74.55,73.6,74.35
20161205,74.84,75.13,73.16,73.38
20161206,73.31,73.86,73.1,73.8
20161207,71.84,73.92,71.84,73.48
20161208,73.49,74.59,73.49,74.2
20161209,74.61,75.18,74.28,74.75
20161212,74.85,75.15,74.15,74.61
20161213,74.9,75.6,74.31,74.37
20161214,74.57,74.97,72.96,73.05
20161215,73.32,73.72,72.83,72.96
20161216,73.22,73.4,72.73,72.93
20161219,73.19,74.03,72.78,73.8
20161220,73.65,74.06,73.4,73.98
20161221,73.87,74.16,73.34,73.36
20161222,73.5,73.5,72.58,73.02
20161223,72.86,73.93,72.86,73.61
20161226,73.61,73.61,73.61,73.61
20161227,73.81,74.57,73.45,74.17
20161228,74.05,74.69,73.57,73.72
20161229,73.64,74.12,73.32,73.69
20161230,73.73,74.02,73.25,73.45
20170102,73.45,73.45,73.45,73.45
20170103,74.26,74.26,72.35,73.02
20170104,72.92,74.72,72.92,74.23
20170105,73.72,74.41,73.23,73.47
20170106,73.53,73.97,73.07,73.5
20170109,73.5,74.41,73.08,73.68
20170110,73.33,73.59,72.79,72.82
20170111,73.03,73.36,72.78,73.04
20170112,73.15,73.76,72.36,73.33
20170113,73.31,73.82,73.03,73.5
20170116,73.5,73.5,73.5,73.5
20170117,72.88,73.83,72.86,73.34
20170118,73.42,73.8,73.02,73.48
20170119,73.64,73.69,72.46,72.73
20170120,72.37,72.51,71.55,71.64
20170123,71.88,72.53,71.44,72.45
20170124,72.79,73.85,72.79,73.54
20170125,73.36,73.94,73.14,73.43
20170126,73.39,73.68,72.46,73.32
20170127,73.4,73.49,72.91,73.44
20170130,73.07,73.44,72.1,72.74
20170131,72.87,73.31,72.29,72.97
20170201,73.29,74.05,73.05,73.94
20170202,73.8,73.8,73.01,73.33
20170203,73.77,74.13,73.5,73.78
20170206,73.53,74.02,73.12,73.35
20170207,73.34,73.47,72.65,72.73
20170208,72.62,73.7,72.44,73.55
20170209,73.37,73.94,73.16,73.57
20170210,74.21,76.2,74.21,74.79
20170213,75.22,75.44,74.36,74.43
20170214,74.4,74.4,73.72,73.83
20170215,73.83,73.92,72.86,73.2
20170216,73.4,74.23,73.4,74.2
20170217,74.42,74.55,73.47,73.9
20170220,73.9,73.9,73.9,73.9
20170221,73.91,74.66,73.86,74.59
20170222,74.34,74.81,73.94,74.26
20170223,74.47,74.56,74.04,74.12
20170224,73.78,74.49,73.64,74.36
20170227,74.1,75.01,74.1,74.48
20170228,74.27,74.65,73.95,74.51
20170301,75.21,76.17,74.92,76.06
20170302,75.69,76.07,75.46,75.81
20170303,75.53,76.24,75.53,76.04
20170306,75.47,76.09,75.47,75.65
20170307,75.54,75.94,75.18,75.47
20170308,75.28,76.06,75.28,75.94
20170309,75.88,76.48,75.59,75.85
20170310,76.12,77.0,75.8,76.79
20170313,76.8,77.0,76.16,76.75
20170314,75.63,77.02,75.35,76.53
20170315,76.92,77.69,76.83,77.24
20170316,77.3,77.53,76.69,76.98
20170317,76.9,77.24,76.59,77.08
20170320,77.17,77.87,76.75,77.84
20170321,77.72,77.82,76.63,76.77
20170322,76.66,77.08,76.5,76.85
20170323,76.83,77.74,76.32,77.16
20170324,77.19,77.65,76.33,76.62
20170327,75.81,76.76,75.81,76.62
20170328,76.41,77.28,76.33,77.07
20170329,77.11,77.11,76.49,77.04
20170330,76.99,77.38,76.56,76.86
20170331,76.9,77.28,76.42,76.99
20170403,76.94,77.46,76.21,76.45
20170404,76.5,76.9,75.95,76.74
20170405,77.04,77.04,76.02,76.08
20170406,75.94,76.54,75.49,76.53
20170407,76.49,76.79,76.02,76.16
20170410,75.94,76.95,75.92,76.89
20170411,76.6,76.97,76.42,76.92
20170412,76.89,76.92,76.04,76.23
20170413,76.05,76.59,75.76,75.8
20170414,75.8,75.8,75.8,75.8
20170417,76.03,77.3,75.88,77.27
20170418,77.04,77.68,76.94,77.57
20170419,77.87,77.93,77.51,77.55
20170420,76.95,78.32,76.95,77.82
20170421,78.18,78.64,77.1,77.99
20170424,78.97,78.97,77.72,78.3
20170425,78.35,79.17,77.62,78.73
20170426,78.92,79.5,78.69,79.34
20170427,79.2,79.6,78.43,78.79
20170428,80.0,80.53,78.75,80.3
20170501,80.08,80.6,79.21,79.73
20170502,79.35,80.68,78.89,80.2
20170503,79.89,80.66,79.5,80.45
20170504,80.5,81.72,80.5,81.39
20170505,81.4,82.17,81.32,81.91
20170508,82.08,82.61,81.72,82.51
20170509,82.61,82.94,82.11,82.48
20170510,82.25,83.04,82.25,82.87
20170511,82.49,82.92,81.82,82.53
20170512,82.45,82.82,82.24,82.43
20170515,82.43,82.98,82.19,82.63
20170516,82.58,82.8,82.23,82.79
20170517,82.05,82.76,81.85,82.28
20170518,81.83,82.4,81.12,82.14
20170519,82.19,82.51,81.82,82.36
20170522,82.25,82.98,82.05,82.84
20170523,83.0,83.66,82.97,83.19
20170524,83.19,83.52,82.8,83.39
20170525,83.62,84.28,83.26,84.15
20170526,84.15,84.63,84.06,84.37
20170529,84.37,84.37,84.37,84.37
20170530,84.13,84.64,83.8,84.54
20170531,85.18,85.18,84.42,85.01
20170601,85.25,86.31,85.01,86.26
20170602,86.4,86.73,85.73,86.33
20170605,86.1,87.09,85.78,85.85
20170606,85.83,85.83,85.06,85.48
20170607,85.11,85.92,85.06,85.69
20170608,85.78,85.99,84.86,85.25
20170609,85.3,85.8,85.18,85.65
20170612,85.24,85.98,84.87,85.44
20170613,85.86,86.18,85.48,86.18
20170614,86.04,86.77,86.04,86.25
20170615,85.52,86.29,84.9,86.23
20170616,86.0,86.36,85.45,85.95
20170619,86.32,86.87,85.93,86.75
20170620,86.95,87.18,86.65,86.89
20170621,86.92,87.93,86.55,87.0
20170622,86.96,87.36,86.41,86.82
20170623,86.83,87.68,86.33,86.8
20170626,86.97,87.59,86.61,87.14
20170627,87.0,87.51,86.34,86.37
20170628,86.96,87.37,86.27,86.93
20170629,86.87,87.13,85.78,86.49
20170630,86.93,87.33,86.76,86.86
20170703,87.21,87.67,86.89,87.08
20170704,87.08,87.08,87.08,87.08
20170705,86.95,87.5,86.44,87.29
20170706,86.83,87.74,86.69,87.31
20170707,87.69,88.55,87.14,88.09
20170710,87.95,89.07,87.48,88.3
20170711,88.19,88.58,87.75,88.17
20170712,88.86,89.32,88.43,88.98
20170713,89.07,89.27,87.79,88.63
20170714,89.12,89.97,88.92,89.43
20170717,89.5,89.97,89.23,89.79
20170718,89.4,90.41,89.08,89.74
20170719,90.32,90.79,89.68,90.09
20170720,90.27,90.48,89.53,89.7
20170721,89.99,89.99,89.0,89.51
20170724,88.94,89.59,88.59,89.46
20170725,89.96,89.96,88.515,88.69
20170726,88.78,88.97,87.99,88.06
20170727,88.5,88.5,87.26,88.0
20170728,83.4,83.7,80.83,82.31
20170731,82.24,83.5,80.69,80.93
20170801,81.0,82.79,80.98,82.51
20170802,82.54,82.75,81.23,82.25
20170803,82.3,82.42,81.82,82.25
20170804,82.5,82.78,82.17,82.36
20170807,82.55,82.95,82.39,82.74
20170808,82.63,82.93,82.4,82.74
20170809,82.5,82.8,82.24,82.48
20170810,82.23,82.74,81.48,81.51
20170811,82.35,82.35,81.405,82.14
20170814,82.63,83.0,82.51,82.91
20170815,82.74,83.0,82.55,82.75
20170816,82.86,83.83,82.7,83.55
20170817,83.27,83.52,82.12,82.13
20170818,82.01,82.3,81.64,82.15
20170821,82.06,82.48,81.34,81.49
20170822,81.98,82.29,81.73,82.12
20170823,81.75,82.53,81.49,81.61
20170824,81.73,82.06,80.95,81.08
20170825,81.5,82.73,81.5,82.39
20170828,82.65,82.78,81.49,81.86
20170829,81.9,82.1,81.57,82.0
20170830,82.14,83.18,81.9,82.97
20170831,83.18,83.66,82.72,83.61
20170901,83.8,84.0,83.42,83.88
20170904,83.88,83.88,83.88,83.88
20170905,83.72,84.17,83.18,83.25
20170906,83.33,83.33,82.49,82.85
20170907,82.96,83.74,82.32,83.61
20170908,83.5,84.18,82.77,83.82
20170911,84.32,85.17,84.0,85.12
20170912,84.93,85.44,84.71,85.2
20170913,84.61,85.04,84.37,84.5
20170914,84.51,85.1,84.16,84.87
20170915,84.74,84.95,84.48,84.71
20170918,84.97,85.67,84.74,85.44
20170919,85.43,85.76,84.95,85.56
20170920,85.66,86.24,85.64,86.12
20170921,86.08,86.76,85.87,86.15
20170922,86.2,86.27,85.45,85.72
20170925,85.75,86.89,85.35,86.76
20170926,87.1,87.32,86.45,86.75
20170927,86.8,86.93,86.21,86.54
20170928,86.36,87.51,86.09,87.08
20170929,87.02,87.13,86.3,86.31
20171002,86.81,87.97,86.54,87.88
20171003,87.9,88.44,87.895,88.43
20171004,88.26,88.85,87.92,88.14
20171005,88.51,88.73,87.62,88.14
20171006,88.04,88.63,87.9,88.58
20171009,88.68,88.79,88.33,88.46
20171010,88.6,88.87,88.22,88.47
20171011,88.48,88.8,88.19,88.36
20171012,88.5,88.71,88.22,88.49
20171013,88.69,89.37,88.69,88.84
20171016,88.92,88.94,87.97,88.94
20171017,89.3,89.3,88.71,88.98
20171018,88.73,89.37,88.32,88.6
20171019,88.51,88.83,88.35,88.64
20171020,89.23,89.31,88.7,89.2
20171023,89.16,89.675,88.92,89.03
20171024,89.06,89.63,88.83,89.12
20171025,89.07,89.47,87.69,88.49
20171026,88.81,89.24,88.6,88.94
20171027,89.4,89.4,85.89,87.93
20171030,87.46,87.59,86.25,86.46
20171031,86.25,87.3,86.12,87.07
20171101,87.83,88.12,87.21,87.41
20171102,87.09,87.37,86.32,86.6
20171103,86.6,87.18,86.6,86.94
20171106,87.02,87.08,85.68,85.85
20171107,85.85,86.11,85.385,85.72
20171108,85.68,86.6,85.64,85.73
20171109,85.2,85.42,84.32,84.76
20171110,84.35,85.11,84.22,84.91
20171113,84.62,85.76,84.62,85.59
20171114,85.38,85.89,85.16,85.61
20171115,85.54,85.98,85.075,85.48
20171116,85.74,86.5,85.6,86.11
20171117,86.03,86.24,85.48,85.65
20171120,85.61,86.43,85.32,85.47
20171121,85.92,86.82,85.32,86.54
20171122,86.61,86.62,85.79,85.85
20171123,85.85,85.85,85.85,85.85
20171124,85.49,86.34,85.1,86.25
20171127,86.37,87.0,86.37,86.74
20171128,87.28,87.47,86.43,86.91
20171129,87.11,87.74,87.08,87.56
20171130,87.61,88.9,87.08,88.41
20171201,88.33,88.99,86.44,87.6
20171204,87.79,88.7,87.32,88.06
20171205,88.33,89.16,87.89,89.0
20171206,88.94,88.94,88.12,88.17
20171207,88.45,88.72,87.79,88.38
20171208,88.27,88.5,87.56,87.9
20171211,87.87,87.87,86.86,87.28
20171212,87.3,87.54,85.7,86.43
20171213,86.05,87.19,85.76,86.69
20171214,87.08,87.21,86.32,86.37
20171215,86.59,87.51,86.59,86.98
20171218,87.25,87.89,86.48,86.57
20171219,86.3,87.65,86.3,86.58
20171220,86.84,87.13,86.29,86.33
20171221,86.4,86.79,85.72,85.76
20171222,85.68,86.36,85.43,85.9
20171225,85.9,85.9,85.9,85.9
20171226,85.79,86.45,85.22,85.39
20171227,85.42,85.82,85.06,85.62
20171228,85.85,86.87,85.66,86.75
20171229,86.88,87.0,86.24,86.28
20180101,86.28,86.28,86.28,86.28
20180102,86.44,87.32,86.075,87.01
20180103,87.26,87.61,86.82,87.19
20180104,87.21,87.93,85.8,86.01
20180105,86.29,87.45,86.185,86.91
20180108,86.86,87.51,86.57,87.2
20180109,87.28,87.76,86.355,86.39
20180110,86.1,86.1,85.16,85.67
20180111,85.44,86.49,85.44,86.25
20180112,86.37,86.94,85.88,86.56
20180115,86.56,86.56,86.56,86.56
20180116,86.36,87.205,86.01,86.24
20180117,86.77,87.28,86.51,86.84
20180118,86.85,87.32,86.35,87.24
20180119,87.3,88.7,87.3,88.61
20180122,88.61,88.61,86.6,87.46
20180123,87.44,87.75,86.91,87.6
20180124,87.81,88.6,86.35,88.2
20180125,88.4,89.43,88.13,89.43
20180126,89.48,89.5,88.46,89.14
20180129,88.73,89.23,87.54,87.73
20180130,87.45,87.96,87.05,87.69
20180131,88.09,88.1,86.76,87.42
20180201,87.24,87.63,85.81,86.84
20180202,86.53,86.91,85.54,85.8
20180205,85.1,86.0,83.38,83.38
20180206,82.38,83.89,81.41,83.79
20180207,83.81,84.91,83.73,83.85
20180208,83.86,84.82,81.36,81.38
20180209,82.09,82.59,79.97,82.16
20180212,82.56,83.445,81.59,82.6
20180213,86.75,92.32,86.3,89.72
20180214,89.58,90.87,88.74,90.66
20180215,90.18,91.97,90.18,91.17
20180216,91.04,92.14,90.49,91.83
20180219,91.83,91.83,91.83,91.83
20180220,91.24,92.19,90.715,91.06
20180221,91.34,92.28,90.11,90.16
20180222,90.44,91.46,90.31,90.61
20180223,90.74,91.07,89.93,90.99
20180226,91.28,91.48,90.39,90.78
20180227,90.73,90.73,89.44,89.5
20180228,89.73,90.41,89.21,89.42
20180301,89.24,90.49,88.31,89.0
20180302,88.74,89.89,88.3,89.68
20180305,89.31,90.7,89.31,90.4
20180306,90.37,91.05,89.28,90.77
20180307,89.98,91.14,89.71,90.14
20180308,90.4,90.83,89.45,89.95
20180309,89.94,90.95,89.56,90.87
20180312,90.7,90.985,90.4,90.78
20180313,91.27,92.1,90.27,90.5
20180314,90.96,91.265,89.43,90.07
20180315,90.14,90.565,89.8,90.28
20180316,90.35,91.13,89.755,90.15
20180319,90.06,90.36,89.45,89.96
20180320,90.02,90.49,89.67,89.78
20180321,89.71,90.335,89.39,89.59
20180322,89.22,89.91,87.93,87.96
20180323,87.94,88.565,86.69,86.77
20180326,87.66,88.55,87.07,88.21
20180327,88.52,89.13,87.62,88.08
20180328,88.08,88.9,87.82,88.36
20180329,88.88,90.34,88.36,89.83
20180330,89.83,89.83,89.83,89.83
20180402,89.37,89.74,87.17,87.93
20180403,88.43,90.17,87.69,89.56
20180404,88.92,89.95,86.85,89.71
20180405,90.3,90.85,89.275,90.4
20180406,89.69,90.36,88.23,88.5
20180409,89.15,90.34,88.595,89.9
20180410,90.75,93.1,90.1,92.72
20180411,91.97,92.64,91.75,92.25
20180412,92.76,93.25,92.475,92.7
20180413,93.2,93.33,92.46,92.75
20180416,93.03,94.66,92.96,94.31
20180417,94.28,96.39,93.79,96.13
20180418,96.15,96.2,95.18,95.61
20180419,95.05,95.88,94.54,94.8
20180420,95.11,95.14,94.12,94.44
20180423,94.71,95.43,94.1,94.35
20180424,94.6,94.7,92.77,93.18
20180425,93.02,93.95,92.37,93.15
20180426,93.18,93.7,92.6,93.28
20180427,93.75,94.74,91.88,93.46
20180430,93.73,93.99,93.05,93.5
20180501,93.45,93.87,92.73,93.54
20180502,94.0,94.0,92.47,92.56
20180503,92.25,92.83,90.98,91.12
20180504,90.84,92.77,90.84,92.26
20180507,92.37,93.29,92.3,92.8
20180508,92.77,92.79,91.55,91.76
20180509,92.0,93.06,91.37,92.96
20180510,93.1,93.94,93.05,93.79
20180511,93.75,94.32,93.15,94.29
20180514,94.19,94.71,92.29,93.37
20180515,93.17,93.17,91.59,92.1
20180516,92.32,93.77,91.92,93.54
20180517,93.67,93.92,93.05,93.29
20180518,92.56,94.275,92.38,93.56
20180521,94.02,94.405,93.84,94.01
20180522,94.28,94.95,93.67,93.96
20180523,93.63,94.27,93.36,94.09
20180524,94.12,94.48,93.575,94.03
20180525,93.88,94.42,93.85,94.08
20180528,94.08,94.08,94.08,94.08
20180529,93.46,94.01,93.06,93.31
20180530,92.7,94.41,92.7,93.96
20180531,94.25,94.39,92.19,92.32
20180601,92.88,93.285,92.47,92.77
20180604,93.11,93.9,92.44,93.86
20180605,94.06,94.5,93.56,93.92
20180606,93.67,94.1,92.04,93.91
20180607,93.83,94.43,92.44,93.24
20180608,93.05,93.9,92.98,93.66
20180611,93.79,94.86,93.43,93.82
20180612,94.09,94.89,93.6,94.15
20180613,94.55,95.0,94.05,94.32
20180614,94.81,95.26,94.26,94.86
20180615,95.0,95.37,94.39,94.92
20180618,94.57,95.08,94.02,94.84
20180619,93.95,94.62,93.61,94.25
20180620,94.17,94.87,93.94,94.64
20180621,94.51,94.61,92.95,93.1
20180622,93.28,93.49,92.34,92.63
20180625,92.77,93.2,91.42,92.18
20180626,92.35,93.45,92.02,92.71
20180627,92.78,93.91,92.07,92.1
20180628,92.0,92.76,91.66,92.71
20180629,93.2,94.12,92.93,93.38
20180702,92.91,93.765,92.46,93.59
20180703,93.96,95.03,93.61,93.99
20180704,93.99,93.99,93.99,93.99
20180705,94.49,94.54,93.45,94.54
20180706,94.22,94.38,93.72,94.08
20180709,94.45,95.63,94.45,95.1
20180710,95.17,96.16,95.17,96.11
20180711,95.61,96.37,95.11,95.68
20180712,96.0,96.83,95.59,95.74
20180713,95.36,96.185,94.66,94.87
20180716,94.77,94.88,93.17,93.29
20180717,93.22,94.74,93.16,94.64
20180718,94.64,95.18,94.18,94.62
20180719,94.7,96.54,94.7,96.33
20180720,95.94,96.16,95.33,95.78
20180723,95.94,96.33,94.79,95.14
20180724,95.34,95.86,94.53,94.75
20180725,94.57,95.0,94.05,94.73
20180726,94.88,96.38,94.56,96.07
20180727,98.0,103.03,97.15,102.9
20180730,103.52,104.1,99.94,102.5
20180731,102.48,103.48,100.78,102.43
20180801,102.4,102.68,101.41,102.43
20180802,101.64,103.58,101.31,102.98
20180803,102.99,104.5,102.85,104.1
20180806,104.01,104.95,103.98,104.21
20180807,104.16,104.68,103.39,103.55
20180808,103.34,103.98,102.87,102.96
20180809,103.11,104.065,103.0,103.9
20180810,103.37,104.04,102.16,102.38
20180813,102.24,103.47,100.94,101.4
20180814,101.89,102.495,101.33,101.98
20180815,101.56,101.66,100.06,101.34
20180816,101.62,102.16,101.35,101.67
20180817,101.68,102.99,101.4,102.76
20180820,102.92,103.52,102.6,102.86
20180821,102.83,103.85,102.83,103.29
20180822,103.32,103.4,102.74,103.18
20180823,103.32,103.55,102.76,102.91
20180824,102.98,104.14,102.98,103.8
20180827,103.79,104.84,103.79,104.54
20180828,104.56,105.19,103.81,103.89
20180829,104.2,105.17,103.77,104.7
20180830,104.86,105.77,103.82,104.7
20180831,104.62,105.44,104.38,104.71
20180903,104.71,104.71,104.71,104.71
20180904,105.32,106.5,104.58,106.38
20180905,106.28,108.78,106.28,108.18
20180906,108.4,109.69,108.125,108.95
20180907,108.94,108.94,107.79,107.9
20180910,108.39,109.08,107.89,108.56
20180911,108.26,108.73,107.54,108.52
20180912,108.36,109.63,108.12,109.39
20180913,108.75,110.9,108.67,110.82
20180914,110.77,112.16,109.79,111.97
20180917,112.3,112.31,110.91,111.3
20180918,111.2,111.79,109.97,111.59
20180919,111.67,111.895,110.53,111.13
20180920,111.28,111.51,110.19,110.49
20180921,110.17,110.85,109.67,110.32
20180924,110.2,111.47,109.99,110.38
20180925,110.75,110.96,108.62,108.76
20180926,108.66,109.49,108.37,108.6
20180927,108.6,109.19,108.16,108.34
20180928,108.21,108.89,107.55,107.74
20181001,108.05,109.2,107.37,107.77
20181002,107.93,108.61,107.6,108.15
20181003,108.51,108.63,107.53,108.0
20181004,107.79,107.79,106.3,107.09
20181005,107.17,107.64,106.96,107.17
20181008,107.12,107.85,106.84,107.67
20181009,107.39,107.39,105.68,105.72
20181010,105.3,105.77,102.12,102.42
20181011,102.37,103.46,101.46,101.57
20181012,102.68,103.36,100.34,101.65
20181015,101.67,102.96,101.05,102.15
20181016,102.66,105.77,102.66,105.6
20181017,106.09,106.09,104.42,105.02
20181018,104.73,105.24,103.83,104.27
20181019,104.59,105.21,104.28,104.32
20181022,104.61,104.735,103.05,103.97
20181023,102.73,104.57,101.715,103.68
20181024,103.63,103.82,99.88,100.08
20181025,100.88,101.965,100.505,101.29
20181026,100.45,101.05,99.31,100.36
20181029,101.32,102.065,99.14,100.16
20181030,100.04,101.41,99.34,101.37
20181031,102.43,103.07,101.85,101.96
20181101,102.69,103.47,102.39,103.18
20181102,97.05,105.33,95.06,103.8
20181105,103.99,104.48,101.25,101.88
20181106,101.64,104.77,101.49,104.1
20181107,104.88,105.26,103.34,105.11
20181108,104.95,105.77,104.6,105.13
20181109,104.96,105.8,103.13,104.29
20181112,104.16,104.35,101.58,101.77
20181113,102.33,103.46,101.54,102.38
20181114,103.04,103.91,101.71,102.08
20181115,101.55,104.83,101.21,104.79
20181116,104.19,107.15,104.19,106.28
20181119,106.2,106.65,104.71,105.18
20181120,104.62,105.43,103.37,104.31
20181121,104.68,105.19,103.15,103.5
20181122,103.5,103.5,103.5,103.5
20181123,103.0,104.42,102.98,103.9
20181126,104.72,104.99,102.945,103.69
20181127,103.3,103.32,102.09,102.3
20181128,102.8,104.07,101.68,104.03
20181129,103.72,104.93,103.69,103.85
20181130,103.66,104.55,103.25,104.05
20181203,105.23,105.51,102.45,104.46
20181204,104.86,104.86,102.83,102.94
20181205,102.94,102.94,102.94,102.94
20181206,102.0,102.0,98.35,101.63
20181207,100.89,102.85,99.1,99.77
20181210,99.43,99.86,98.22,99.11
20181211,100.1,101.02,98.28,98.67
20181212,100.1,100.935,99.75,99.93
20181213,100.42,101.27,99.51,100.32
20181214,100.04,100.96,99.13,100.34
20181217,99.84,100.65,98.04,98.64
20181218,99.43,100.27,97.27,97.94
20181219,98.28,98.84,95.27,95.59
20181220,95.51,96.15,93.67,95.01
20181221,94.76,96.61,93.51,93.55
20181224,92.86,92.86,89.67,89.7
20181225,89.7,89.7,89.7,89.7
20181226,89.72,92.01,89.72,91.77
20181227,90.7,92.48,90.01,92.37
20181228,92.6,93.91,92.05,92.7
20181231,92.82,94.07,92.66,94.07
20190101,94.07,94.07,94.07,94.07
20190102,92.73,92.73,89.45,90.18
20190103,88.97,90.21,88.26,89.09
20190104,90.1,91.9,89.29,91.07
20190107,90.6,93.49,90.585,91.95
20190108,92.82,94.1,91.76,93.52
20190109,93.86,94.2,93.21,93.48
20190110,93.14,94.82,93.13,94.58
20190111,94.67,94.75,93.43,94.73
20190114,94.28,94.845,93.74,93.96
20190115,93.97,95.4,93.9,94.81
20190116,94.82,95.35,94.39,94.71
20190117,94.39,96.17,94.38,95.93
20190118,96.1,97.97,95.88,97.69
20190121,97.69,97.69,97.69,97.69
20190122,97.42,98.25,95.12,96.44
20190123,96.7,97.77,96.25,97.38
20190124,97.25,98.06,96.71,97.13
20190125,97.91,98.35,97.07,97.39
20190128,97.39,98.51,97.275,97.88
20190129,97.42,98.42,97.42,97.94
20190130,98.1,98.8,97.62,97.96
20190131,98.0,99.28,97.24,99.12
20190201,99.33,99.98,99.05,99.55
20190204,99.42,99.89,98.52,99.85
20190205,99.95,101.13,99.415,101.07
20190206,100.62,102.0,100.58,101.59
20190207,101.13,102.04,100.84,101.95
20190208,101.57,102.31,100.96,101.39
20190211,101.88,102.45,101.24,101.7
20190212,102.3,102.69,101.74,102.32
20190213,102.71,103.51,102.26,102.8
20190214,102.24,103.025,101.555,101.77
20190215,102.32,102.46,101.345,101.94
20190218,101.94,101.94,101.94,101.94
20190219,101.84,102.03,101.26,101.55
20190220,101.47,102.655,101.31,102.26
20190221,102.3,104.0,100.64,103.12
20190222,102.48,103.55,101.24,102.05
20190225,102.27,102.6,101.11,101.56
20190226,101.21,101.67,100.93,101.31
20190227,102.02,102.3,100.79,101.41
20190228,101.26,102.05,100.97,101.73
20190301,102.21,102.21,100.685,100.81
20190304,101.25,102.15,100.63,101.61
20190305,101.68,102.27,101.325,101.47
20190306,101.53,102.02,100.43,100.49
20190307,100.2,100.63,99.36,99.88
20190308,99.21,100.62,99.21,100.47
20190311,100.6,102.07,100.57,102.02
20190312,102.06,102.91,102.05,102.26
20190313,102.5,103.34,102.09,102.28
20190314,102.34,103.04,101.81,102.89
20190315,102.92,103.58,102.58,103.05
20190318,103.22,103.84,102.85,103.71
20190319,104.22,104.589,103.24,103.6
20190320,103.42,104.83,102.86,103.95
20190321,103.57,105.68,103.57,105.54
20190322,105.26,105.26,103.5,103.83
20190325,103.55,104.9659,103.0226,104.51
20190326,105.0,106.38,104.7,105.44
20190327,105.52,106.4899,105.13,105.52
20190328,105.76,106.39,105.42,106.19
20190329,106.1,106.68,105.465,106.39
20190401,106.91,107.82,106.21,107.71
20190402,107.8,107.8,106.66,107.22
20190403,107.61,108.08,107.16,107.47
20190404,107.68,108.16,107.29,108.1
20190405,107.57,108.96,107.57,108.74
20190408,108.65,109.27,107.985,108.99
20190409,108.39,108.56,107.52,108.16
20190410,108.22,109.3,107.95,109.04
20190411,109.29,109.86,108.975,109.66
20190412,109.95,110.695,109.79,110.31
20190415,110.34,110.5,109.485,109.89
20190416,109.81,109.97,108.76,109.62
20190417,109.68,109.75,107.59,107.7
20190418,107.93,108.38,107.3,108.21
20190419,108.21,108.21,108.21,108.21
20190422,108.25,109.37,108.25,108.93
20190423,109.03,110.53,109.03,110.06
20190424,109.97,110.86,109.94,109.94
20190425,109.21,109.97,108.83,109.45
20190426,109.71,111.65,109.7,111.42
20190429,111.38,111.72,110.7556,111.32
20190430,110.75,111.81,109.93,111.24
20190501,112.27,114.66,111.55,112.81
20190502,112.81,113.115,111.62,113.0
20190503,113.3,114.14,112.7255,113.85
20190506,112.54,115.52,112.54,115.02
20190507,113.98,114.68,113.135,113.97
20190508,113.78,114.4848,113.31,113.99
20190509,113.38,113.79,112.76,113.0
20190510,112.72,113.71,112.1823,113.6
20190513,111.92,113.17,111.29,112.8
20190514,113.39,114.355,112.89399999999999,112.98
20190515,112.76,113.77,112.3633,113.24
20190516,113.38,114.5,113.255,114.11
20190517,113.49,114.46,113.49,113.78
20190520,113.19,113.81,112.83,113.04
20190521,113.51,113.89,113.09,113.48
20190522,113.77,113.98,113.0,113.15
20190523,112.54,113.69,112.04,112.96
20190524,113.29,113.865,112.75,112.93
20190527,112.93,112.93,112.93,112.93
20190528,113.04,113.615,112.69,112.9
20190529,112.54,113.44,112.28,112.7
20190530,112.73,113.625,112.54,113.51
20190531,112.53,113.73,111.5,113.27
20190603,113.41,115.0,113.41,114.03
20190604,114.7,115.98,113.68,115.72
20190605,115.9,117.18,115.41,117.13
20190606,117.21,120.39,117.21,120.23
20190607,120.0,122.6,119.92,121.92
20190610,122.19,123.28,121.63,123.22
20190611,124.0,124.445,121.21,122.58
20190612,122.99,122.99,121.19,121.62
20190613,121.5,122.1,120.31,120.72
20190614,120.46,120.51,119.57,120.09
20190617,120.04,120.84,119.7865,120.17
20190618,120.59,120.7,119.38,119.49
20190619,119.63,120.0,118.82,119.41
20190620,120.89,121.0,118.275,119.81
20190621,119.32,119.85,117.4301,119.38
20190624,119.5,119.5,118.48,118.78
20190625,119.0,121.79,118.88,121.06
20190626,121.24,121.25,119.1,119.24
20190627,119.39,121.81,119.39,121.55
20190628,121.62,124.75,121.62,124.34
20190701,125.0,126.195,123.12,124.27
20190702,124.37,124.71,123.22,123.54
20190703,124.0,125.92,124.0,125.92
20190704,125.92,125.92,125.92,125.92
20190705,125.21,125.2573,123.01,124.61
20190708,125.5,125.5,123.64,123.99
20190709,123.79,124.5319,123.79,124.07
20190710,124.63,125.79,123.35,123.58
20190711,123.27,124.12,123.01,124.02
20190712,124.19,124.19,123.21,123.41
20190715,123.15,123.96,122.69,122.92
20190716,123.12,123.36,122.3,123.16
20190717,123.12,124.43,123.12,123.53
20190718,123.15,124.45,123.03,124.36
20190719,124.71,124.945,123.36,123.4
20190722,123.51,123.89,122.82,123.16
20190723,123.89,124.71,123.38,124.51
20190724,124.01,124.55,122.84,123.29
20190725,123.0,124.28,122.675,122.92
20190726,123.13,124.7668,122.93,124.49
20190729,124.45,125.66,123.54,124.94
20190730,123.8,124.57,122.96,123.81
20190731,123.49,123.86,119.94,121.02
20190801,120.19,120.19,114.84,117.56
20190802,116.61,118.34,115.65,118.02
20190805,116.44,119.03,116.25,117.08
20190806,117.55,120.81,117.38,119.72
20190807,119.1,122.26,118.7,121.66
20190808,122.48,124.0,121.59,122.87
20190809,122.74,123.23,121.05,121.08
20190812,121.02,121.68,119.92,120.02
20190813,119.78,121.81,119.05,121.22
20190814,120.01,120.73,118.99,119.09
20190815,119.25,120.25,117.95,118.33
20190816,118.91,120.74,118.78,120.25
20190819,121.2,121.48,120.0,120.22
20190820,120.1,120.1,118.46,118.88
20190821,119.66,119.83,118.89,119.33
20190822,119.83,120.72,119.04,120.54
20190823,120.55,121.33,119.89,120.26
20190826,120.72,121.23,119.905,120.99
20190827,121.48,121.83,120.81,121.5
20190828,121.49,122.14,120.63,121.86
20190829,122.88,123.4425,121.15,121.69
20190830,122.38,123.32,121.23,122.22
20190902,122.22,122.22,122.22,122.22
20190903,120.81,121.08,118.57,119.65
20190904,120.73,122.05,120.19,121.94
20190905,122.99,123.21,120.98,121.2
20190906,120.96,121.84,120.32,120.88
20190909,121.57,121.57,118.77,119.1
20190910,118.98,119.315,116.12,119.11
20190911,118.9,119.53,116.72,118.63
20190912,119.08,119.7,117.98,118.05
20190913,118.55,118.97,117.66,118.4
20190916,117.72,117.72,115.87,116.48
20190917,116.2,117.86,116.065,117.01
20190918,116.89,118.95,116.56,118.3
20190919,118.33,118.95,117.64,117.85
20190920,118.14,119.02,117.56,118.05
20190923,117.61,118.97,117.61,118.1
20190924,118.6,119.49,118.25,118.51
20190925,118.71,119.435,118.67,119.12
20190926,119.57,119.68,118.515,118.92
20190927,119.21,119.305,118.06,118.67
20190930,118.95,119.4099,117.84,118.45
20191001,119.29,119.73,117.5,117.67
20191002,117.0,117.0199,115.06,115.35
20191003,115.0,115.23,113.78,114.99
20191004,115.31,117.62,115.09,117.33
20191007,116.69,117.445,116.235,116.56
20191008,116.01,117.76,114.51,114.78
20191009,115.82,116.89,115.38,116.48
20191010,116.48,117.24,115.73,116.31
20191011,116.92,118.0,116.24,116.33
20191014,116.32,116.88,115.74,115.85
20191015,116.34,116.64,115.05,115.18
20191016,115.14,115.6,114.3994,115.47
20191017,115.57,117.08,115.5,116.55
20191018,116.42,118.0,116.42,117.78
20191021,118.37,119.11,117.8,117.9
20191022,118.03,118.05,116.62,116.66
20191023,116.53,117.93,116.5,117.37
20191024,117.45,118.125,116.74,117.34
20191025,117.21,118.62,117.21,117.88
20191028,117.96,118.795,117.84,118.2
20191029,117.45,119.13,117.45,118.51
20191030,118.58,119.63,117.77,119.25
20191031,119.04,119.63,117.62,118.15
20191101,113.67,115.56,109.54,110.79
20191104,111.01,111.76,108.405,108.67
20191105,109.21,110.25,108.43,108.66
20191106,108.67,109.81,108.42,109.49
20191107,109.53,110.53,108.91,109.4
20191108,109.31,110.93,108.87,109.0
20191111,108.48,109.755,108.48,108.58
20191112,108.64,109.3,108.16,108.22
20191113,108.32,110.07,108.02,109.62
20191114,109.48,110.58,109.48,110.47
20191115,110.73,110.73,109.7,109.96
20191118,109.92,110.95,109.88,110.34
20191119,110.73,111.4,110.45,110.5
20191120,110.12,111.85,110.12,110.7
20191121,111.23,112.05,110.18,111.3
20191122,111.65,111.665,109.995,110.12
20191125,110.26,111.06,110.17,110.95
20191126,111.52,112.65,110.9657,112.56
20191127,112.99,113.5805,112.63,112.83
20191128,112.83,112.83,112.83,112.83
20191129,112.64,113.21,111.94,112.12
20191202,112.52,112.7199,111.62,112.01
20191203,111.51,113.305,111.14,112.71
20191204,112.74,113.48,111.74,111.78
20191205,111.89,112.66,111.6484,111.95
20191206,112.79,113.0,111.8,112.08
20191209,112.31,112.84,111.685,112.63
20191210,112.47,112.83,111.34,111.94
20191211,111.97,112.765,111.9,112.57
20191212,112.51,114.44,112.51,114.18
20191213,113.98,115.385,113.33,113.97
20191216,114.46,114.71,113.3,114.32
20191217,114.13,114.75,113.06,113.35
20191218,113.35,113.365,112.36,113.08
20191219,113.16,113.48,112.8,113.26
20191220,113.72,115.14,113.72,114.96
20191223,114.93,115.37,114.23,115.37
20191224,115.31,115.64,114.68,114.73
20191225,114.73,114.73,114.73,114.73
20191226,114.74,114.86,113.8,114.82
20191227,115.22,115.35,114.15,115.02
20191230,114.94,115.8,114.67,115.76
20191231,115.72,116.2,115.02,115.62
20200101,115.62,115.62,115.62,115.62
20200102,115.5,116.48,112.93,113.68
20200103,112.81,114.84,112.81,114.04
20200106,113.66,114.49,113.56,114.05
20200107,113.56,114.01,112.74,112.91
20200108,113.08,114.18,113.08,113.22
20200109,113.77,115.06,113.32,114.66
20200110,114.66,116.17,114.57,115.79
20200113,115.49,116.56,115.37,116.2
20200114,116.25,116.32,115.14,116.13
20200115,116.32,117.23,115.9,116.71
20200116,117.21,118.27,117.18,118.22
20200117,118.31,118.61,117.06,117.32
20200120,117.32,117.32,117.32,117.32
20200121,116.66,116.77,115.345,115.63
20200122,115.69,116.43,115.48,115.67
20200123,115.33,119.02,114.77,117.37
20200124,117.4,118.16,116.62,117.12
20200127,115.54,117.26,115.22,116.49
20200128,116.41,116.58,115.57,115.97
20200129,115.91,117.08,115.53,115.94
20200130,115.02,117.01,114.33,116.54
20200131,115.91,116.39,115.14,115.51
20200203,115.61,117.54,115.51,117.24
20200204,117.79,118.49,116.2,116.95
20200205,117.14,118.29,116.75,117.87
20200206,118.05,118.95,117.46,117.53
20200207,117.07,117.68,116.215,116.7
20200210,116.42,117.1,115.475,115.8
20200211,116.02,116.89,115.4,116.05
20200212,116.13,116.205,114.3,114.71
20200213,114.58,116.55,113.69,116.2
20200214,116.6,117.75,116.1687,116.67
20200217,116.67,116.67,116.67,116.67
20200218,116.47,116.63,115.08,115.26
20200219,115.37,116.62,114.72,115.01
20200220,114.61,115.67,113.74,114.93
20200221,111.52,114.65,109.16,111.98
20200224,110.5,111.21,109.17,109.21
20200225,109.22,109.5678,106.71,106.94
20200226,104.0,106.56,102.7734,104.68
20200227,103.4,104.76,101.95,102.4
20200228,99.73,102.205,99.315,101.07
20200302,101.62,103.76,100.81,103.58
20200303,103.79,105.72,102.2,102.76
20200304,105.01,107.63,104.44,107.44
20200305,105.34,105.8,102.64,103.98
20200306,101.61,107.41,101.33,107.3
20200309,103.08,105.0,99.478,101.45
20200310,103.6,103.99,99.385,103.99
20200311,101.67,101.67,97.92,99.08
20200312,92.48,96.4,87.5,94.4
20200313,98.08,99.44,91.12,96.39
20200316,88.18,94.48,87.4,87.88
20200317,89.95,96.95,89.48,96.45
20200318,91.69,96.98,90.34,96.75
20200319,96.49,101.22,93.59,98.88
20200320,98.81,99.9825,89.13,92.51
20200323,92.06,93.24,79.84,83.93
20200324,87.27,88.32,82.69,88.06
20200325,89.0,93.66,86.22,90.18
20200326,90.85,97.34,90.21600000000001,96.2
20200327,94.54,95.84,92.1,94.0
20200330,94.97,100.96,94.37,100.48
20200331,100.52,102.75,97.44,99.54
20200401,97.71,98.675,95.44,96.21
20200402,95.81,97.14,94.12,96.15
20200403,94.88,97.42,93.36,94.19
20200406,97.07,101.18,97.07,100.76
20200407,103.55,103.55,99.22,101.12
20200408,102.65,105.29,100.64,104.11
20200409,105.04,108.03,104.23,107.27
20200413,106.99,107.43,102.3,102.35
20200414,104.56,105.3658,103.36,104.02
20200415,102.28,104.19,100.61,100.93
20200416,103.03,103.03,99.68,101.85
20200417,103.86,105.02,102.4,102.94
20200420,101.86,107.94,101.13,106.94
20200421,105.85,106.99,104.115,106.12
20200422,106.99,107.04,104.12,106.3
20200423,106.62,107.32,104.95,105.02
20200424,105.41,105.41,103.09,104.12
20200427,109.33,114.1,106.88,112.58
20200428,112.6,114.66,110.99,111.18
20200429,112.56,113.63,109.82,110.08
20200430,108.99,110.07,106.34,107.08
20200501,110.56,110.56,104.71,106.14
20200504,105.53,107.325,105.08,106.81
20200505,106.78,107.63,105.4,105.56
20200506,106.77,107.05,104.76,104.86
20200507,105.52,106.89,105.14,105.47
20200508,106.98,107.985,106.56,107.53
20200511,106.66,107.505,106.08,106.31
20200512,106.43,106.43,103.85,103.95
20200513,103.39,103.39,101.645,102.42
20200514,101.01,102.62,99.11,102.46
20200515,101.47,101.7,100.045,101.5
20200518,104.07,105.15,102.95,104.15
20200519,103.79,105.7475,103.16,103.73
20200520,104.45,105.515,104.08,104.41
20200521,104.44,105.71,104.44,105.09
20200522,104.97,105.25,103.71,105.1
20200526,107.34,110.19,106.78,109.55
20200527,111.07,112.65,110.35,112.55
20200528,113.33,113.33,110.94,111.6
20200529,111.1,111.53,109.71,111.39
20200601,111.28,111.88,110.6,111.42
20200602,111.75,112.47,110.94,112.07
20200603,112.7,114.1,112.7,113.28
20200604,113.5,113.5,111.015,112.14
20200605,113.8,114.28,112.905,113.4
20200608,112.82,114.0,112.29,113.58
20200609,112.78,113.45,111.91,112.47
20200610,113.0,113.0,110.82,111.64
